Data from RUBY_A_c_USB4F064561__1__11-36-57-923.txt Node

Date: Wed Jun 02 11:36:57 EDT 2021
User: storrer.a
Spectrometer: USB4F06456
Trigger mode: 4
Integration Time (sec): 2.000000E-1
Scans to average: 1
Electric dark correction enabled: true
Nonlinearity correction enabled: false
Boxcar width: 0
XAxis mode: Wavelengths
Number of Pixels in Spectrum: 3648
>>>>>Begin Spectral Data<<<<<
345.532	-335.01
345.749	-335.01
345.966	-335.01
346.184	-380.07
346.401	-341.16
346.618	54.1
346.836	62.29
347.053	39.76
347.27	-29.87
347.487	-101.55
347.705	160.59
347.922	-93.35
348.139	-7.34
348.356	-113.83
348.574	0.85
348.791	-44.2
349.008	72.53
349.225	-29.87
349.442	-76.97
349.659	-3.24
349.877	-74.92
350.094	-40.11
350.311	4.95
350.528	25.43
350.745	115.54
350.962	11.09
351.179	0.85
351.396	35.67
351.613	-40.11
351.83	-9.39
352.047	11.09
352.264	9.05
352.481	33.62
352.698	-103.59
352.915	-109.74
353.132	-95.4
353.349	-101.55
353.566	25.43
353.783	-36.01
354	76.63
354.217	-115.88
354.433	205.65
354.65	111.44
354.867	-72.87
355.084	-83.11
355.301	74.58
355.518	0.85
355.735	33.62
355.951	-11.43
356.168	-29.87
356.385	27.48
356.602	-31.91
356.818	-25.77
357.035	19.29
357.252	17.24
357.469	-113.83
357.685	-119.98
357.902	-177.32
358.119	-89.26
358.335	-193.7
358.552	-83.11
358.769	82.77
358.985	25.43
359.202	-95.4
359.419	95.06
359.635	-3.24
359.852	-60.59
360.068	-72.87
360.285	66.39
360.501	127.83
360.718	9.05
360.934	-109.74
361.151	-113.83
361.367	-48.3
361.584	27.48
361.8	-105.64
362.017	-173.22
362.233	-70.83
362.45	101.2
362.666	-103.59
362.883	52.05
363.099	-44.2
363.315	54.1
363.532	13.14
363.748	-72.87
363.965	-191.66
364.181	84.82
364.397	4.95
364.614	45.91
364.83	-11.43
365.046	152.4
365.262	-54.44
365.479	62.29
365.695	205.65
365.911	125.78
366.128	-64.68
366.344	-72.87
366.56	-122.02
366.776	-48.3
366.992	-54.44
367.209	105.3
367.425	-167.08
367.641	-97.45
367.857	2.9
368.073	156.5
368.289	-97.45
368.505	-74.92
368.722	56.15
368.938	66.39
369.154	-66.73
369.37	84.82
369.586	-76.97
369.802	-62.63
370.018	68.44
370.234	-29.87
370.45	-50.35
370.666	131.92
370.882	-220.33
371.098	-3.24
371.314	-42.15
371.53	-109.74
371.746	-52.39
371.962	-40.11
372.178	-29.87
372.393	-95.4
372.609	-48.3
372.825	4.95
373.041	-9.39
373.257	-128.17
373.473	-11.43
373.689	66.39
373.904	-119.98
374.12	29.52
374.336	64.34
374.552	-5.29
374.767	-52.39
374.983	7
375.199	17.24
375.415	64.34
375.63	-3.24
375.846	-160.94
376.062	74.58
376.278	-91.31
376.493	-3.24
376.709	-7.34
376.925	-58.54
377.14	7
377.356	-40.11
377.571	-81.07
377.787	181.07
378.003	-46.25
378.218	-29.87
378.434	93.01
378.649	121.68
378.865	-128.17
379.08	62.29
379.296	29.52
379.511	-7.34
379.727	52.05
379.942	-48.3
380.158	68.44
380.373	-111.78
380.589	-52.39
380.804	27.48
381.02	-23.72
381.235	119.64
381.45	-31.91
381.666	-87.21
381.881	109.4
382.096	-60.59
382.312	-7.34
382.527	-136.36
382.742	-9.39
382.958	17.24
383.173	119.64
383.388	371.54
383.604	11.09
383.819	-15.53
384.034	4.95
384.249	-117.93
384.465	-60.59
384.68	-134.31
384.895	13.14
385.11	-40.11
385.325	4.95
385.541	60.24
385.756	-31.91
385.971	54.1
386.186	-21.67
386.401	-58.54
386.616	-11.43
386.831	-58.54
387.046	-9.39
387.261	-29.87
387.477	19.29
387.692	-31.91
387.907	-83.11
388.122	29.52
388.337	-17.58
388.552	-44.2
388.767	-136.36
388.982	-81.07
389.197	74.58
389.411	-13.48
389.626	-23.72
389.841	-97.45
390.056	-111.78
390.271	-15.53
390.486	-40.11
390.701	-150.7
390.916	-130.22
391.131	-13.48
391.345	-111.78
391.56	-122.02
391.775	-64.68
391.99	-126.12
392.205	0.85
392.42	-70.83
392.634	97.11
392.849	62.29
393.064	-31.91
393.279	-13.48
393.493	-72.87
393.708	-122.02
393.923	-154.79
394.137	-21.67
394.352	-1.19
394.567	-89.26
394.781	-126.12
394.996	35.67
395.211	82.77
395.425	-101.55
395.64	-36.01
395.854	207.7
396.069	-9.39
396.284	-103.59
396.498	-105.64
396.713	-36.01
396.927	-17.58
397.142	-101.55
397.356	-11.43
397.571	-119.98
397.785	68.44
398	144.21
398.214	-38.06
398.428	88.92
398.643	45.91
398.857	-56.49
399.072	74.58
399.286	29.52
399.5	66.39
399.715	68.44
399.929	29.52
400.144	74.58
400.358	52.05
400.572	129.88
400.787	-126.12
401.001	4.95
401.215	-29.87
401.429	-29.87
401.644	-68.78
401.858	111.44
402.072	95.06
402.286	121.68
402.501	131.92
402.715	41.81
402.929	117.59
403.143	299.86
403.357	316.24
403.571	643.92
403.786	912.2
404	1182.53
404.214	1024.84
404.428	932.68
404.642	762.7
404.856	729.93
405.07	539.47
405.284	658.25
405.498	355.15
405.712	168.79
405.926	82.77
406.14	19.29
406.354	90.96
406.568	4.95
406.782	25.43
406.996	11.09
407.21	158.55
407.424	123.73
407.638	27.48
407.852	0.85
408.066	0.85
408.28	103.25
408.493	58.2
408.707	-60.59
408.921	-42.15
409.135	248.66
409.349	-1.19
409.563	105.3
409.776	2.9
409.99	-17.58
410.204	35.67
410.418	101.2
410.631	7
410.845	131.92
411.059	-103.59
411.273	95.06
411.486	37.72
411.7	-50.35
411.914	-52.39
412.127	62.29
412.341	95.06
412.555	-7.34
412.768	45.91
412.982	0.85
413.195	19.29
413.409	43.86
413.623	-15.53
413.836	-31.91
414.05	74.58
414.263	-11.43
414.477	-91.31
414.69	111.44
414.904	142.16
415.117	156.5
415.331	-72.87
415.544	-64.68
415.758	103.25
415.971	162.64
416.185	-29.87
416.398	9.05
416.611	33.62
416.825	29.52
417.038	160.59
417.251	101.2
417.465	9.05
417.678	-29.87
417.891	90.96
418.105	-3.24
418.318	-60.59
418.531	123.73
418.745	-19.63
418.958	-138.41
419.171	131.92
419.384	152.4
419.598	-93.35
419.811	144.21
420.024	107.35
420.237	109.4
420.45	17.24
420.664	45.91
420.877	144.21
421.09	82.77
421.303	82.77
421.516	383.82
421.729	101.2
421.942	-79.02
422.155	76.63
422.368	144.21
422.582	90.96
422.795	29.52
423.008	117.59
423.221	17.24
423.434	131.92
423.647	136.02
423.86	47.96
424.073	133.97
424.286	168.79
424.498	236.37
424.711	129.88
424.924	80.72
425.137	140.12
425.35	113.49
425.563	183.12
425.776	160.59
425.989	234.32
426.202	66.39
426.414	287.57
426.627	222.03
426.84	222.03
427.053	172.88
427.266	217.94
427.478	74.58
427.691	162.64
427.904	222.03
428.117	185.17
428.329	207.7
428.542	158.55
428.755	287.57
428.967	95.06
429.18	226.13
429.393	267.09
429.605	396.11
429.818	811.85
430.031	213.84
430.243	187.22
430.456	168.79
430.668	154.45
430.881	176.98
431.094	187.22
431.306	328.53
431.519	226.13
431.731	172.88
431.944	213.84
432.156	281.43
432.369	166.74
432.581	480.08
432.794	443.21
433.006	246.61
433.218	643.92
433.431	504.65
433.643	656.2
433.856	930.63
434.068	1377.09
434.28	2358.07
434.493	3750.68
434.705	5612.29
434.918	8317.65
435.13	8721.1
435.342	9153.23
435.554	7578.34
435.767	5923.58
435.979	5106.44
436.191	4494.1
436.404	3973.91
436.616	3627.81
436.828	2032.44
437.04	1112.9
437.252	629.58
437.465	432.97
437.677	410.45
437.889	516.94
438.101	512.85
438.313	553.8
438.525	437.07
438.737	467.79
438.949	467.79
439.162	381.78
439.374	422.73
439.586	506.7
439.798	318.29
440.01	551.76
440.222	457.55
440.434	451.41
440.646	525.13
440.858	361.3
441.07	426.83
441.282	443.21
441.494	441.17
441.706	396.11
441.918	564.04
442.129	525.13
442.341	523.09
442.553	418.64
442.765	443.21
442.977	545.61
443.189	471.89
443.401	613.2
443.612	430.93
443.824	344.91
444.036	357.2
444.248	471.89
444.46	471.89
444.671	482.13
444.883	611.15
445.095	496.46
445.307	484.17
445.518	541.52
445.73	551.76
445.942	463.69
446.153	455.5
446.365	385.87
446.577	504.65
446.788	713.55
447	527.18
447.212	506.7
447.423	582.48
447.635	527.18
447.846	568.14
448.058	461.65
448.269	623.44
448.481	564.04
448.692	580.43
448.904	484.17
449.115	551.76
449.327	435.02
449.538	541.52
449.75	492.37
449.961	586.57
450.173	512.85
450.384	443.21
450.596	492.37
450.807	557.9
451.018	594.76
451.23	574.28
451.441	582.48
451.652	600.91
451.864	478.03
452.075	426.83
452.286	518.99
452.498	453.45
452.709	439.12
452.92	494.41
453.131	598.86
453.343	496.46
453.554	443.21
453.765	441.17
453.976	543.57
454.187	340.82
454.399	357.2
454.61	480.08
454.821	539.47
455.032	516.94
455.243	516.94
455.454	574.28
455.665	463.69
455.877	471.89
456.088	469.84
456.299	396.11
456.51	398.16
456.721	555.85
456.932	562
457.143	361.3
457.354	457.55
457.565	496.46
457.776	392.02
457.987	359.25
458.198	379.73
458.409	478.03
458.62	213.84
458.83	457.55
459.041	420.69
459.252	424.78
459.463	320.34
459.674	471.89
459.885	459.6
460.096	371.54
460.306	238.42
460.517	422.73
460.728	428.88
460.939	314.19
461.15	369.49
461.36	465.74
461.571	418.64
461.782	432.97
461.993	420.69
462.203	428.88
462.414	416.59
462.625	277.33
462.835	293.71
463.046	392.02
463.257	510.8
463.467	428.88
463.678	385.87
463.889	383.82
464.099	496.46
464.31	541.52
464.52	363.34
464.731	283.47
464.941	459.6
465.152	306
465.362	494.41
465.573	269.14
465.783	484.17
465.994	475.98
466.204	420.69
466.415	394.06
466.625	547.66
466.836	502.61
467.046	363.34
467.257	410.45
467.467	303.95
467.677	461.65
467.888	459.6
468.098	389.97
468.308	346.96
468.519	349.01
468.729	408.4
468.939	445.26
469.15	394.06
469.36	562
469.57	207.7
469.78	273.23
469.991	400.21
470.201	426.83
470.411	342.86
470.621	443.21
470.831	312.14
471.042	461.65
471.252	469.84
471.462	441.17
471.672	457.55
471.882	533.33
472.092	543.57
472.302	807.75
472.512	303.95
472.723	418.64
472.933	359.25
473.143	455.5
473.353	357.2
473.563	527.18
473.773	404.3
473.983	312.14
474.193	306
474.403	324.43
474.613	369.49
474.822	443.21
475.032	314.19
475.242	482.13
475.452	271.19
475.662	306
475.872	437.07
476.082	508.75
476.292	322.38
476.502	353.1
476.711	320.34
476.921	334.67
477.131	379.73
477.341	412.5
477.551	332.62
477.76	336.72
477.97	369.49
478.18	332.62
478.39	475.98
478.599	512.85
478.809	410.45
479.019	424.78
479.228	566.09
479.438	500.56
479.648	426.83
479.857	482.13
480.067	545.61
480.276	648.01
480.486	648.01
480.696	549.71
480.905	779.08
481.115	656.2
481.324	934.73
481.534	979.78
481.743	977.73
481.953	1336.13
482.162	1352.51
482.372	1467.2
482.581	1536.83
482.791	1983.29
483	2171.7
483.21	2126.64
483.419	2439.98
483.628	2583.34
483.838	2892.59
484.047	3304.23
484.257	3449.63
484.466	3777.31
484.675	4012.82
484.885	4285.2
485.094	4647.69
485.303	4864.78
485.512	5163.78
485.722	5305.09
485.931	5520.13
486.14	5745.41
486.349	5772.03
486.559	5944.06
486.768	6089.46
486.977	5972.73
487.186	6038.27
487.395	5833.47
487.605	5915.39
487.814	6122.23
488.023	5925.63
488.232	6183.67
488.441	5933.82
488.65	6101.75
488.859	6159.1
489.068	5681.92
489.277	5669.63
489.486	5378.82
489.695	5487.36
489.904	5501.7
490.113	5556.99
490.322	5204.74
490.531	5186.31
490.74	4981.51
490.949	4832.01
491.158	4877.07
491.367	4913.93
491.576	4768.52
491.785	4475.67
491.994	4483.86
492.203	4422.42
492.412	4461.33
492.62	4408.08
492.829	4199.19
493.038	4016.92
493.247	3803.93
493.456	3916.57
493.664	3900.19
493.873	3740.44
494.082	3568.41
494.291	3640.09
494.499	3509.02
494.708	3521.31
494.917	3191.59
495.126	3218.21
495.334	3232.55
495.543	3250.98
495.751	3162.92
495.96	3222.31
496.169	3199.78
496.377	3195.68
496.586	3078.95
496.795	2941.74
497.003	2888.49
497.212	2816.81
497.42	2876.2
497.629	2691.88
497.837	2851.63
498.046	2319.15
498.254	2386.74
498.463	2097.97
498.671	2143.03
498.88	2024.25
499.088	1952.57
499.297	1655.61
499.505	1577.79
499.713	1692.48
499.922	1381.18
500.13	1274.69
500.338	1211.2
500.547	1221.44
500.755	967.49
500.963	1022.79
501.172	861
501.38	832.33
501.588	750.41
501.797	721.74
502.005	559.95
502.213	748.36
502.421	602.96
502.63	602.96
502.838	551.76
503.046	725.83
503.254	478.03
503.462	441.17
503.67	441.17
503.879	406.35
504.087	375.63
504.295	430.93
504.503	377.68
504.711	258.9
504.919	260.95
505.127	385.87
505.335	291.66
505.543	316.24
505.751	357.2
505.959	312.14
506.167	420.69
506.375	389.97
506.583	418.64
506.791	217.94
506.999	303.95
507.207	269.14
507.415	271.19
507.623	183.12
507.831	199.51
508.039	211.79
508.246	242.51
508.454	230.23
508.662	508.75
508.87	164.69
509.078	324.43
509.286	340.82
509.493	238.42
509.701	271.19
509.909	185.17
510.117	185.17
510.324	332.62
510.532	250.71
510.74	267.09
510.947	211.79
511.155	291.66
511.363	283.47
511.57	189.27
511.778	226.13
511.986	260.95
512.193	260.95
512.401	330.58
512.609	265.04
512.816	353.1
513.024	230.23
513.231	189.27
513.439	162.64
513.646	213.84
513.854	306
514.061	291.66
514.269	224.08
514.476	203.6
514.684	359.25
514.891	301.9
515.099	316.24
515.306	377.68
515.513	93.01
515.721	209.75
515.928	283.47
516.135	254.8
516.343	273.23
516.55	228.18
516.757	193.36
516.965	125.78
517.172	191.31
517.379	50
517.587	189.27
517.794	226.13
518.001	115.54
518.208	27.48
518.416	297.81
518.623	99.16
518.83	-21.67
519.037	84.82
519.244	222.03
519.451	242.51
519.659	205.65
519.866	146.26
520.073	131.92
520.28	295.76
520.487	183.12
520.694	246.61
520.901	217.94
521.108	66.39
521.315	25.43
521.522	205.65
521.729	189.27
521.936	146.26
522.143	142.16
522.35	95.06
522.557	283.47
522.764	217.94
522.971	133.97
523.178	303.95
523.385	64.34
523.592	166.74
523.799	76.63
524.005	41.81
524.212	242.51
524.419	80.72
524.626	109.4
524.833	117.59
525.04	160.59
525.246	168.79
525.453	103.25
525.66	95.06
525.867	52.05
526.073	117.59
526.28	150.36
526.487	136.02
526.693	66.39
526.9	244.56
527.107	150.36
527.313	170.83
527.52	150.36
527.727	295.76
527.933	201.55
528.14	205.65
528.346	281.43
528.553	140.12
528.759	471.89
528.966	125.78
529.173	222.03
529.379	-15.53
529.586	322.38
529.792	252.75
529.999	172.88
530.205	250.71
530.411	181.07
530.618	236.37
530.824	279.38
531.031	185.17
531.237	308.05
531.443	430.93
531.65	410.45
531.856	488.27
532.062	748.36
532.269	779.08
532.475	869.19
532.681	1082.18
532.888	1092.42
533.094	1041.22
533.3	1000.26
533.506	881.48
533.713	990.02
533.919	938.82
534.125	844.62
534.331	852.81
534.538	811.85
534.744	820.04
534.95	783.18
535.156	973.64
535.362	914.25
535.568	1016.65
535.774	1057.61
535.98	1207.11
536.186	1299.27
536.393	1461.06
536.599	1807.16
536.805	2059.06
537.011	2423.6
537.217	2614.06
537.423	3134.25
537.629	3629.85
537.835	4002.58
538.04	4137.75
538.246	4461.33
538.452	4844.3
538.658	5301
538.864	5845.76
539.07	6759.15
539.276	7021.29
539.482	8047.32
539.688	8469.2
539.893	9384.65
540.099	10672.82
540.305	12645.01
540.511	15407.72
540.717	17660.49
540.922	20959.77
541.128	24224.23
541.334	27175.35
541.54	29788.56
541.745	31814
541.951	33507.67
542.157	35043.65
542.362	37075.23
542.568	37947.67
542.774	38150.42
542.979	39172.35
543.185	37458.2
543.39	38222.09
543.596	37419.29
543.802	36405.55
544.007	34701.64
544.213	35078.46
544.418	34777.41
544.624	35799.35
544.829	38086.93
545.035	37482.78
545.24	36415.79
545.446	34017.61
545.651	31832.43
545.857	28475.81
546.062	26337.73
546.267	23898.6
546.473	21438.99
546.678	18500.16
546.884	15592.04
547.089	13617.8
547.294	12409.5
547.5	11750.05
547.705	10664.63
547.91	10807.98
548.116	10265.27
548.321	10523.32
548.526	10326.71
548.731	10130.11
548.937	10193.59
549.142	9892.54
549.347	9431.75
549.552	9161.42
549.757	9013.96
549.963	8614.61
550.168	8458.96
550.373	8024.79
550.578	7908.06
550.783	7889.63
550.988	7676.64
551.193	7807.71
551.398	7529.19
551.603	7465.7
551.808	7074.54
552.013	6927.08
552.218	6572.79
552.424	6550.26
552.628	5989.11
552.833	5790.46
553.038	5133.06
553.243	4604.69
553.448	4262.68
553.653	3736.35
553.858	3420.96
554.063	2970.41
554.268	2757.42
554.473	2278.19
554.678	2020.15
554.883	1737.53
555.087	1780.54
555.292	1438.53
555.497	1215.3
555.702	1114.95
555.907	1157.96
556.111	998.21
556.316	920.39
556.521	947.01
556.725	926.54
556.93	844.62
557.135	912.2
557.34	791.37
557.544	764.75
557.749	734.03
557.954	889.67
558.158	754.51
558.363	660.3
558.567	729.93
558.772	635.72
558.977	541.52
559.181	457.55
559.386	508.75
559.59	559.95
559.795	508.75
559.999	459.6
560.204	672.59
560.408	355.15
560.613	490.32
560.817	467.79
561.021	379.73
561.226	463.69
561.43	396.11
561.635	432.97
561.839	516.94
562.043	420.69
562.248	557.9
562.452	459.6
562.656	232.27
562.861	322.38
563.065	379.73
563.269	512.85
563.474	281.43
563.678	805.71
563.882	396.11
564.086	303.95
564.291	289.62
564.495	293.71
564.699	394.06
564.903	353.1
565.107	275.28
565.311	230.23
565.516	342.86
565.72	398.16
565.924	451.41
566.128	467.79
566.332	242.51
566.536	310.1
566.74	369.49
566.944	410.45
567.148	295.76
567.352	248.66
567.556	209.75
567.76	363.34
567.964	328.53
568.168	287.57
568.372	338.77
568.576	459.6
568.78	303.95
568.984	332.62
569.188	289.62
569.392	156.5
569.595	357.2
569.799	342.86
570.003	189.27
570.207	258.9
570.411	166.74
570.615	269.14
570.818	193.36
571.022	131.92
571.226	242.51
571.43	322.38
571.633	435.02
571.837	387.92
572.041	392.02
572.244	336.72
572.448	334.67
572.652	402.26
572.855	553.8
573.059	617.29
573.263	492.37
573.466	658.25
573.67	592.72
573.873	594.76
574.077	482.13
574.28	523.09
574.484	645.96
574.687	602.96
574.891	570.19
575.094	832.33
575.298	1260.35
575.501	1745.72
575.705	2132.79
575.908	2263.86
576.112	2261.81
576.315	2497.33
576.518	2181.94
576.722	2245.43
576.925	2198.32
577.129	2401.07
577.332	2368.31
577.535	2360.11
577.739	2593.58
577.942	2757.42
578.145	2966.31
578.348	3302.18
578.552	3437.34
578.755	4115.22
578.958	4967.18
579.161	4909.83
579.365	5319.43
579.568	5155.59
579.771	5212.93
579.974	5393.16
580.177	5010.18
580.38	5268.23
580.583	5395.2
580.787	5413.63
580.99	5448.45
581.193	5563.14
581.396	5583.62
581.599	5847.8
581.802	5997.31
582.005	6435.57
582.208	6906.6
582.411	7054.06
582.614	7467.75
582.817	7600.87
583.02	7731.94
583.223	7916.25
583.426	7719.65
583.629	7496.42
583.831	7430.88
584.034	7203.56
584.237	6955.76
584.44	6953.71
584.643	6566.64
584.846	6433.52
585.049	6367.99
585.251	6253.3
585.454	6380.28
585.657	6947.56
585.86	8008.41
586.062	8907.47
586.265	9542.34
586.468	9953.98
586.671	10259.13
586.873	10212.03
587.076	10228.41
587.279	10021.56
587.481	9589.44
587.684	9196.23
587.886	8442.58
588.089	7998.17
588.292	7189.22
588.494	7088.87
588.697	6443.76
588.899	6267.64
589.102	5921.53
589.304	5632.77
589.507	5337.86
589.709	5278.47
589.912	4887.31
590.114	4743.95
590.317	4975.37
590.519	4641.55
590.722	4717.33
590.924	4637.45
591.126	4678.41
591.329	5268.23
591.531	5657.34
591.734	6021.88
591.936	6384.37
592.138	6728.43
592.341	6662.9
592.543	6454
592.745	6245.11
592.947	6134.52
593.15	5792.51
593.352	5282.56
593.554	4883.21
593.756	4340.5
593.959	3857.18
594.161	3662.62
594.363	3285.8
594.565	2874.15
594.767	2695.98
594.969	2726.7
595.171	2491.18
595.374	2376.5
595.576	2087.73
595.778	2173.75
595.98	1981.24
596.182	2233.14
596.384	1848.12
596.586	2059.06
596.788	1997.62
596.99	2259.76
597.192	2206.52
597.394	2345.78
597.596	2487.09
597.798	3052.33
598	3320.61
598.202	3564.32
598.403	3644.19
598.605	3844.89
598.807	3750.68
599.009	4004.63
599.211	4010.78
599.413	3646.24
599.615	3480.35
599.816	3513.12
600.018	3257.12
600.22	3076.9
600.422	2759.47
600.623	2345.78
600.825	2140.98
601.027	2097.97
601.228	1995.57
601.43	1829.69
601.632	1506.11
601.833	1286.98
602.035	1438.53
602.237	1362.75
602.438	1411.9
602.64	1327.94
602.842	1282.88
603.043	1258.31
603.245	1426.24
603.446	1430.34
603.648	1313.6
603.849	1395.52
604.051	1338.18
604.252	2229.04
604.454	1563.45
604.655	1655.61
604.857	1680.19
605.058	1696.57
605.259	1626.94
605.461	1835.83
605.662	1811.26
605.864	1993.53
606.065	2067.25
606.266	2333.49
606.468	2478.9
606.669	2593.58
606.87	2894.63
607.072	2808.62
607.273	3195.68
607.474	3455.78
607.675	3943.19
607.877	4360.98
608.078	4700.94
608.279	5649.15
608.48	6490.87
608.681	7946.97
608.883	9722.56
609.084	12655.25
609.285	16142.94
609.486	22901.24
609.687	31005.05
609.888	38287.63
610.089	44538.03
610.29	49250.41
610.491	51443.78
610.692	53405.73
610.893	52265.02
611.094	51513.41
611.295	49936.48
611.496	46266.52
611.697	43561.15
611.898	38723.85
612.099	34519.37
612.3	30964.09
612.501	27779.5
612.702	24777.18
612.903	23060.98
613.104	21008.92
613.305	19708.46
613.505	18831.93
613.706	17207.89
613.907	16501.34
614.108	15708.77
614.309	14500.47
614.509	13894.27
614.71	12313.24
614.911	11799.2
615.112	10615.48
615.312	9874.11
615.513	8962.76
615.714	8227.54
615.914	7742.18
616.115	7101.16
616.316	6781.68
616.516	6406.9
616.717	5915.39
616.918	5507.84
617.118	5212.93
617.319	5079.82
617.519	5192.45
617.72	5116.68
617.92	5032.71
618.121	5319.43
618.321	5194.5
618.522	5206.79
618.722	5712.64
618.923	5726.97
619.123	5673.73
619.324	5980.92
619.524	5946.11
619.724	6025.98
619.925	5917.44
620.125	5882.62
620.326	5694.21
620.526	6142.71
620.726	5743.36
620.927	5622.53
621.127	5450.5
621.327	5516.03
621.527	5288.71
621.728	5217.03
621.928	5155.59
622.128	4727.57
622.328	4672.27
622.529	4817.68
622.729	4741.9
622.929	4686.61
623.129	4315.92
623.329	4424.47
623.529	4461.33
623.73	4338.45
623.93	4252.44
624.13	4223.76
624.33	4283.16
624.53	3949.34
624.73	3754.78
624.93	3672.86
625.13	3625.76
625.33	3613.47
625.53	3457.82
625.73	3474.21
625.93	3486.5
626.13	3164.97
626.33	3353.38
626.53	3324.71
626.73	3263.27
626.929	3201.83
627.129	3126.05
627.329	3259.17
627.529	3271.46
627.729	3167.01
627.929	3236.64
628.128	3293.99
628.328	3257.12
628.528	3433.25
628.728	3742.49
628.928	4002.58
629.127	4375.31
629.327	4991.75
629.527	5540.61
629.726	6353.65
629.926	6558.45
630.126	6654.7
630.325	6882.03
630.525	6652.66
630.725	6253.3
630.924	5772.03
631.124	5614.34
631.323	5006.09
631.523	4481.81
631.722	3865.37
631.922	3154.73
632.122	2759.47
632.321	2186.04
632.521	1919.8
632.72	1850.17
632.919	1303.36
633.119	1198.92
633.318	1151.81
633.518	1205.06
633.717	1055.56
633.917	1057.61
634.116	777.03
634.315	815.94
634.515	764.75
634.714	762.7
634.913	781.13
635.113	598.86
635.312	699.21
635.511	686.92
635.71	734.03
635.91	795.47
636.109	693.07
636.308	510.8
636.507	650.06
636.706	592.72
636.906	592.72
637.105	457.55
637.304	602.96
637.503	510.8
637.702	488.27
637.901	684.87
638.1	478.03
638.299	408.4
638.499	443.21
638.698	451.41
638.897	455.5
639.096	445.26
639.295	428.88
639.494	430.93
639.693	525.13
639.892	404.3
640.09	592.72
640.289	453.45
640.488	451.41
640.687	424.78
640.886	426.83
641.085	402.26
641.284	625.48
641.483	574.28
641.682	385.87
641.88	435.02
642.079	369.49
642.278	539.47
642.477	580.43
642.675	566.09
642.874	543.57
643.073	488.27
643.272	443.21
643.47	600.91
643.669	607.05
643.868	697.16
644.066	652.11
644.265	582.48
644.464	705.35
644.662	488.27
644.861	574.28
645.059	930.63
645.258	500.56
645.457	566.09
645.655	590.67
645.854	631.63
646.052	619.34
646.251	580.43
646.449	619.34
646.648	533.33
646.846	508.75
647.044	574.28
647.243	607.05
647.441	486.22
647.64	504.65
647.838	639.82
648.036	852.81
648.235	598.86
648.433	742.22
648.631	1096.52
648.83	1078.08
649.028	1434.43
649.226	1532.73
649.425	1815.35
649.623	1925.94
649.821	1788.73
650.019	1803.07
650.218	1731.39
650.416	1659.71
650.614	1772.35
650.812	1549.12
651.01	1336.13
651.208	1205.06
651.406	1174.34
651.605	1123.14
651.803	1016.65
652.001	936.78
652.199	959.3
652.397	893.77
652.595	928.58
652.793	914.25
652.991	760.65
653.189	793.42
653.387	721.74
653.585	731.98
653.783	586.57
653.981	623.44
654.179	533.33
654.377	447.31
654.574	615.24
654.772	455.5
654.97	369.49
655.168	437.07
655.366	525.13
655.564	373.58
655.761	435.02
655.959	183.12
656.157	340.82
656.355	387.92
656.553	514.89
656.75	287.57
656.948	504.65
657.146	518.99
657.343	570.19
657.541	531.28
657.739	322.38
657.936	426.83
658.134	349.01
658.332	306
658.529	283.47
658.727	299.86
658.924	238.42
659.122	275.28
659.319	138.07
659.517	314.19
659.714	107.35
659.912	447.31
660.109	281.43
660.307	295.76
660.504	562
660.702	789.32
660.899	602.96
661.097	695.11
661.294	908.1
661.491	967.49
661.689	1000.26
661.886	1071.94
662.083	1020.74
662.281	983.88
662.478	1030.98
662.675	840.52
662.873	865.1
663.07	838.47
663.267	738.12
663.464	787.27
663.662	602.96
663.859	578.38
664.056	418.64
664.253	705.35
664.45	609.1
664.647	326.48
664.845	365.39
665.042	330.58
665.239	590.67
665.436	451.41
665.633	373.58
665.83	316.24
666.027	428.88
666.224	480.08
666.421	432.97
666.618	437.07
666.815	432.97
667.012	650.06
667.209	500.56
667.406	607.05
667.603	443.21
667.8	402.26
667.997	508.75
668.194	594.76
668.39	467.79
668.587	449.36
668.784	379.73
668.981	518.99
669.178	416.59
669.375	488.27
669.571	430.93
669.768	424.78
669.965	306
670.162	308.05
670.358	295.76
670.555	453.45
670.752	330.58
670.948	394.06
671.145	334.67
671.342	326.48
671.538	355.15
671.735	301.9
671.932	387.92
672.128	373.58
672.325	379.73
672.521	371.54
672.718	269.14
672.914	193.36
673.111	170.83
673.307	324.43
673.504	349.01
673.7	262.99
673.897	363.34
674.093	369.49
674.29	181.07
674.486	252.75
674.682	269.14
674.879	213.84
675.075	402.26
675.272	262.99
675.468	262.99
675.664	365.39
675.861	287.57
676.057	353.1
676.253	295.76
676.449	271.19
676.646	291.66
676.842	488.27
677.038	252.75
677.234	320.34
677.43	297.81
677.627	402.26
677.823	430.93
678.019	494.41
678.215	428.88
678.411	473.93
678.607	381.78
678.803	291.66
678.999	232.27
679.196	480.08
679.392	445.26
679.588	394.06
679.784	369.49
679.98	439.12
680.176	373.58
680.372	273.23
680.568	332.62
680.763	363.34
680.959	420.69
681.155	222.03
681.351	357.2
681.547	428.88
681.743	555.85
681.939	459.6
682.135	301.9
682.33	195.41
682.526	340.82
682.722	215.89
682.918	381.78
683.114	332.62
683.309	187.22
683.505	283.47
683.701	224.08
683.897	262.99
684.092	219.99
684.288	289.62
684.484	191.31
684.679	156.5
684.875	291.66
685.07	322.38
685.266	322.38
685.462	240.47
685.657	541.52
685.853	451.41
686.048	541.52
686.244	574.28
686.439	740.17
686.635	897.86
686.83	852.81
687.026	817.99
687.221	803.66
687.417	772.94
687.612	795.47
687.807	676.68
688.003	596.81
688.198	629.58
688.394	559.95
688.589	523.09
688.784	451.41
688.98	379.73
689.175	385.87
689.37	371.54
689.565	369.49
689.761	127.83
689.956	275.28
690.151	125.78
690.346	328.53
690.542	103.25
690.737	86.87
690.932	80.72
691.127	113.49
691.322	228.18
691.517	162.64
691.713	353.1
691.908	418.64
692.103	344.91
692.298	357.2
692.493	629.58
692.688	660.3
692.883	656.2
693.078	598.86
693.273	500.56
693.468	623.44
693.663	619.34
693.858	473.93
694.053	492.37
694.248	504.65
694.443	201.55
694.637	346.96
694.832	338.77
695.027	205.65
695.222	146.26
695.417	121.68
695.612	181.07
695.806	179.03
696.001	117.59
696.196	709.45
696.391	23.38
696.585	-21.67
696.78	27.48
696.975	185.17
697.17	172.88
697.364	31.57
697.559	45.91
697.754	58.2
697.948	232.27
698.143	140.12
698.337	27.48
698.532	136.02
698.727	11.09
698.921	-11.43
699.116	23.38
699.31	103.25
699.505	60.24
699.699	172.88
699.894	64.34
700.088	90.96
700.283	31.57
700.477	62.29
700.671	23.38
700.866	43.86
701.06	144.21
701.255	142.16
701.449	181.07
701.643	136.02
701.838	74.58
702.032	164.69
702.226	242.51
702.421	279.38
702.615	74.58
702.809	297.81
703.003	283.47
703.198	334.67
703.392	500.56
703.586	377.68
703.78	471.89
703.974	346.96
704.169	502.61
704.363	398.16
704.557	631.63
704.751	787.27
704.945	848.71
705.139	1104.71
705.333	1246.02
705.527	1262.4
705.721	1454.91
705.915	1549.12
706.109	1829.69
706.303	1889.08
706.497	1819.45
706.691	1823.55
706.885	1835.83
707.079	1944.38
707.273	1876.79
707.467	2026.29
707.661	2165.56
707.855	2227
708.048	2255.67
708.242	2202.42
708.436	2143.03
708.63	2122.55
708.824	2116.41
709.018	1856.31
709.211	1649.47
709.405	1469.25
709.599	1297.22
709.792	1112.9
709.986	1051.46
710.18	1088.32
710.374	1098.56
710.567	1205.06
710.761	1491.77
710.954	1469.25
711.148	1739.58
711.342	1618.75
711.535	1803.07
711.729	1745.72
711.922	1696.57
712.116	1628.99
712.309	1459.01
712.503	1340.22
712.696	1157.96
712.89	977.73
713.083	1014.6
713.277	746.31
713.47	576.33
713.664	656.2
713.857	375.63
714.05	394.06
714.244	361.3
714.437	254.8
714.631	297.81
714.824	82.77
715.017	107.35
715.21	58.2
715.404	133.97
715.597	217.94
715.79	-5.29
715.984	107.35
716.177	-29.87
716.37	148.31
716.563	37.72
716.756	97.11
716.949	64.34
717.143	43.86
717.336	43.86
717.529	33.62
717.722	29.52
717.915	56.15
718.108	217.94
718.301	33.62
718.494	115.54
718.687	-56.49
718.88	-15.53
719.073	-31.91
719.266	-52.39
719.459	80.72
719.652	-17.58
719.845	199.51
720.038	115.54
720.231	2.9
720.424	142.16
720.617	93.01
720.809	64.34
721.002	-33.96
721.195	25.43
721.388	125.78
721.581	-13.48
721.774	68.44
721.966	76.63
722.159	117.59
722.352	0.85
722.544	179.03
722.737	-64.68
722.93	181.07
723.123	33.62
723.315	-9.39
723.508	-25.77
723.701	-81.07
723.893	86.87
724.086	84.82
724.278	-64.68
724.471	86.87
724.663	90.96
724.856	33.62
725.048	9.05
725.241	113.49
725.433	-38.06
725.626	109.4
725.818	86.87
726.011	-117.93
726.203	-74.92
726.396	39.76
726.588	74.58
726.78	-31.91
726.973	-76.97
727.165	133.97
727.358	-21.67
727.55	-64.68
727.742	39.76
727.934	-7.34
728.127	-33.96
728.319	50
728.511	2.9
728.704	58.2
728.896	43.86
729.088	-13.48
729.28	140.12
729.472	136.02
729.664	29.52
729.857	90.96
730.049	234.32
730.241	164.69
730.433	131.92
730.625	13.14
730.817	-17.58
731.009	93.01
731.201	140.12
731.393	107.35
731.585	-7.34
731.777	105.3
731.969	109.4
732.161	58.2
732.353	7
732.545	97.11
732.737	-27.82
732.929	-9.39
733.121	29.52
733.313	-64.68
733.504	90.96
733.696	-113.83
733.888	23.38
734.08	15.19
734.272	37.72
734.463	-19.63
734.655	-17.58
734.847	-23.72
735.039	35.67
735.23	-68.78
735.422	-99.5
735.614	7
735.805	172.88
735.997	13.14
736.189	2.9
736.38	127.83
736.572	-58.54
736.764	-21.67
736.955	-19.63
737.147	-85.16
737.338	-40.11
737.53	123.73
737.721	43.86
737.913	-79.02
738.104	9.05
738.296	-3.24
738.487	-113.83
738.679	-19.63
738.87	-60.59
739.061	-109.74
739.253	93.01
739.444	-87.21
739.636	41.81
739.827	76.63
740.018	-93.35
740.21	150.36
740.401	58.2
740.592	-66.73
740.783	-89.26
740.975	35.67
741.166	-56.49
741.357	-74.92
741.548	70.48
741.74	-68.78
741.931	105.3
742.122	97.11
742.313	82.77
742.504	4.95
742.695	99.16
742.886	50
743.077	56.15
743.269	43.86
743.46	-19.63
743.651	70.48
743.842	70.48
744.033	-101.55
744.224	25.43
744.415	-17.58
744.606	66.39
744.797	-13.48
744.987	68.44
745.178	123.73
745.369	25.43
745.56	7
745.751	129.88
745.942	4.95
746.133	68.44
746.324	70.48
746.514	-27.82
746.705	74.58
746.896	17.24
747.087	-1.19
747.277	2.9
747.468	-33.96
747.659	-7.34
747.85	37.72
748.04	60.24
748.231	-11.43
748.422	-21.67
748.612	238.42
748.803	80.72
748.993	-19.63
749.184	133.97
749.375	82.77
749.565	41.81
749.756	-23.72
749.946	50
750.137	7
750.327	43.86
750.518	-52.39
750.708	-175.27
750.899	-46.25
751.089	-36.01
751.279	93.01
751.47	54.1
751.66	-64.68
751.851	-9.39
752.041	37.72
752.231	-81.07
752.422	-11.43
752.612	119.64
752.802	109.4
752.993	74.58
753.183	-109.74
753.373	43.86
753.563	90.96
753.754	115.54
753.944	-144.55
754.134	-48.3
754.324	66.39
754.514	33.62
754.704	199.51
754.895	-142.5
755.085	-109.74
755.275	-15.53
755.465	-11.43
755.655	-87.21
755.845	50
756.035	-17.58
756.225	-19.63
756.415	-119.98
756.605	-85.16
756.795	-97.45
756.985	4.95
757.175	64.34
757.365	76.63
757.555	93.01
757.745	11.09
757.934	35.67
758.124	125.78
758.314	11.09
758.504	209.75
758.694	240.47
758.884	262.99
759.073	297.81
759.263	392.02
759.453	267.09
759.643	289.62
759.832	285.52
760.022	355.15
760.212	351.06
760.401	203.6
760.591	136.02
760.781	113.49
760.97	234.32
761.16	172.88
761.35	97.11
761.539	15.19
761.729	74.58
761.918	0.85
762.108	-13.48
762.297	7
762.487	45.91
762.676	9.05
762.866	97.11
763.055	-7.34
763.245	97.11
763.434	-140.46
763.624	-31.91
763.813	15.19
764.002	129.88
764.192	123.73
764.381	133.97
764.57	-27.82
764.76	-21.67
764.949	-17.58
765.138	50
765.328	-27.82
765.517	86.87
765.706	66.39
765.895	-101.55
766.085	-74.92
766.274	-64.68
766.463	-54.44
766.652	-7.34
766.841	52.05
767.03	58.2
767.219	37.72
767.409	-21.67
767.598	17.24
767.787	68.44
767.976	-9.39
768.165	-3.24
768.354	66.39
768.543	80.72
768.732	568.14
768.921	29.52
769.11	103.25
769.299	90.96
769.488	115.54
769.677	172.88
769.865	-54.44
770.054	50
770.243	47.96
770.432	203.6
770.621	-126.12
770.81	86.87
770.998	-42.15
771.187	39.76
771.376	-38.06
771.565	201.55
771.754	-36.01
771.942	-54.44
772.131	-7.34
772.32	-48.3
772.508	62.29
772.697	54.1
772.886	9.05
773.074	2.9
773.263	676.68
773.451	80.72
773.64	-23.72
773.829	99.16
774.017	-74.92
774.206	-1.19
774.394	11.09
774.583	156.5
774.771	-11.43
774.96	-9.39
775.148	-81.07
775.337	-19.63
775.525	97.11
775.713	41.81
775.902	35.67
776.09	-17.58
776.279	-115.88
776.467	-48.3
776.655	-97.45
776.844	185.17
777.032	-29.87
777.22	191.31
777.408	-31.91
777.597	150.36
777.785	-91.31
777.973	-97.45
778.161	-17.58
778.35	64.34
778.538	-66.73
778.726	-29.87
778.914	-44.2
779.102	148.31
779.29	-56.49
779.478	-91.31
779.666	-167.08
779.854	117.59
780.043	-142.5
780.231	58.2
780.419	-11.43
780.607	-40.11
780.795	-46.25
780.983	50
781.17	-38.06
781.358	154.45
781.546	13.14
781.734	21.33
781.922	74.58
782.11	-79.02
782.298	-56.49
782.486	9.05
782.674	-40.11
782.861	0.85
783.049	-142.5
783.237	64.34
783.425	-40.11
783.612	-27.82
783.8	-38.06
783.988	-79.02
784.176	15.19
784.363	-25.77
784.551	29.52
784.739	-9.39
784.926	-36.01
785.114	-21.67
785.301	11.09
785.489	-31.91
785.677	9.05
785.864	21.33
786.052	-5.29
786.239	27.48
786.427	66.39
786.614	-5.29
786.802	-23.72
786.989	9.05
787.177	-3.24
787.364	-52.39
787.551	33.62
787.739	88.92
787.926	-9.39
788.114	17.24
788.301	-132.26
788.488	-128.17
788.676	-81.07
788.863	-3.24
789.05	-85.16
789.238	-81.07
789.425	2.9
789.612	72.53
789.799	-60.59
789.986	-156.84
790.174	-9.39
790.361	-44.2
790.548	-46.25
790.735	-128.17
790.922	66.39
791.109	58.2
791.296	230.23
791.484	152.4
791.671	-3.24
791.858	-7.34
792.045	13.14
792.232	-3.24
792.419	7
792.606	64.34
792.793	166.74
792.98	41.81
793.167	-38.06
793.353	80.72
793.54	78.68
793.727	72.53
793.914	-128.17
794.101	31.57
794.288	-36.01
794.475	-50.35
794.662	-29.87
794.848	-148.65
795.035	33.62
795.222	-48.3
795.409	-48.3
795.595	-25.77
795.782	-142.5
795.969	127.83
796.155	76.63
796.342	70.48
796.529	68.44
796.715	203.6
796.902	156.5
797.089	191.31
797.275	-5.29
797.462	447.31
797.648	-93.35
797.835	7
798.021	-87.21
798.208	-11.43
798.394	-19.63
798.581	-74.92
798.767	39.76
798.954	45.91
799.14	-56.49
799.327	-58.54
799.513	121.68
799.699	-15.53
799.886	43.86
800.072	25.43
800.258	13.14
800.445	25.43
800.631	-19.63
800.817	-83.11
801.004	25.43
801.19	-42.15
801.376	-107.69
801.562	7
801.749	58.2
801.935	-3.24
802.121	-46.25
802.307	-60.59
802.493	127.83
802.679	2.9
802.866	-79.02
803.052	-144.55
803.238	-128.17
803.424	-3.24
803.61	17.24
803.796	-5.29
803.982	9.05
804.168	-50.35
804.354	-11.43
804.54	-19.63
804.726	172.88
804.912	-56.49
805.098	-5.29
805.283	11.09
805.469	115.54
805.655	33.62
805.841	41.81
806.027	45.91
806.213	88.92
806.399	-31.91
806.584	-107.69
806.77	140.12
806.956	-38.06
807.142	86.87
807.327	103.25
807.513	148.31
807.699	-27.82
807.884	21.33
808.07	29.52
808.256	-13.48
808.441	-21.67
808.627	35.67
808.813	70.48
808.998	99.16
809.184	170.83
809.369	154.45
809.555	199.51
809.74	389.97
809.926	381.78
810.111	346.96
810.297	310.1
810.482	490.32
810.668	392.02
810.853	486.22
811.039	359.25
811.224	334.67
811.409	359.25
811.595	254.8
811.78	359.25
811.965	213.84
812.151	172.88
812.336	170.83
812.521	4.95
812.706	119.64
812.892	52.05
813.077	131.92
813.262	25.43
813.447	90.96
813.633	66.39
813.818	45.91
814.003	-25.77
814.188	17.24
814.373	-115.88
814.558	125.78
814.743	-40.11
814.928	-76.97
815.113	-87.21
815.298	84.82
815.483	-89.26
815.668	-11.43
815.853	93.01
816.038	-109.74
816.223	-93.35
816.408	39.76
816.593	-31.91
816.778	21.33
816.963	0.85
817.148	50
817.333	-89.26
817.518	15.19
817.702	109.4
817.887	33.62
818.072	123.73
818.257	88.92
818.442	226.13
818.626	74.58
818.811	70.48
818.996	119.64
819.18	76.63
819.365	9.05
819.55	168.79
819.734	-81.07
819.919	121.68
820.104	66.39
820.288	39.76
820.473	74.58
820.657	-31.91
820.842	-46.25
821.026	50
821.211	-33.96
821.396	-72.87
821.58	-109.74
821.764	43.86
821.949	80.72
822.133	90.96
822.318	179.03
822.502	17.24
822.687	2.9
822.871	41.81
823.055	29.52
823.24	-95.4
823.424	-62.63
823.608	-56.49
823.793	27.48
823.977	19.29
824.161	-23.72
824.345	-76.97
824.53	-3.24
824.714	58.2
824.898	-95.4
825.082	-29.87
825.266	-7.34
825.45	-81.07
825.635	103.25
825.819	-115.88
826.003	-46.25
826.187	-44.2
826.371	82.77
826.555	-38.06
826.739	-48.3
826.923	-36.01
827.107	-79.02
827.291	123.73
827.475	90.96
827.659	47.96
827.843	41.81
828.027	-109.74
828.211	47.96
828.395	99.16
828.578	82.77
828.762	-87.21
828.946	156.5
829.13	133.97
829.314	21.33
829.498	86.87
829.681	45.91
829.865	105.3
830.049	70.48
830.233	103.25
830.416	0.85
830.6	27.48
830.784	25.43
830.967	60.24
831.151	-60.59
831.335	-76.97
831.518	15.19
831.702	-44.2
831.885	72.53
832.069	-19.63
832.252	93.01
832.436	-60.59
832.619	66.39
832.803	31.57
832.986	-21.67
833.17	27.48
833.353	-56.49
833.537	-19.63
833.72	-60.59
833.904	115.54
834.087	86.87
834.27	-7.34
834.454	-21.67
834.637	-31.91
834.82	-81.07
835.004	-27.82
835.187	127.83
835.37	-81.07
835.553	64.34
835.737	-148.65
835.92	-117.93
836.103	-113.83
836.286	127.83
836.469	-83.11
836.653	-79.02
836.836	-13.48
837.019	76.63
837.202	23.38
837.385	-130.22
837.568	113.49
837.751	82.77
837.934	-15.53
838.117	-50.35
838.3	54.1
838.483	-9.39
838.666	101.2
838.849	35.67
839.032	17.24
839.215	27.48
839.398	29.52
839.581	50
839.764	-11.43
839.947	-79.02
840.129	-64.68
840.312	15.19
840.495	-46.25
840.678	-156.84
840.861	50
841.043	-119.98
841.226	7
841.409	-40.11
841.592	52.05
841.774	-167.08
841.957	13.14
842.14	-105.64
842.322	-76.97
842.505	27.48
842.687	-185.51
842.87	86.87
843.053	-1.19
843.235	-89.26
843.418	-27.82
843.6	-93.35
843.783	-83.11
843.965	129.88
844.148	-23.72
844.33	-85.16
844.513	13.14
844.695	2.9
844.878	-44.2
845.06	-44.2
845.242	39.76
845.425	-19.63
845.607	-109.74
845.789	13.14
845.972	-11.43
846.154	103.25
846.336	62.29
846.519	45.91
846.701	-89.26
846.883	13.14
847.065	-119.98
847.247	-76.97
847.43	-62.63
847.612	-7.34
847.794	-130.22
847.976	52.05
848.158	-70.83
848.34	17.24
848.522	-64.68
848.704	117.59
848.886	2.9
849.069	19.29
849.251	33.62
849.433	9.05
849.615	111.44
849.797	-109.74
849.978	84.82
850.16	72.53
850.342	-93.35
850.524	-115.88
850.706	-87.21
850.888	11.09
851.07	9.05
851.252	0.85
851.434	17.24
851.615	144.21
851.797	23.38
851.979	4.95
852.161	27.48
852.342	-56.49
852.524	4.95
852.706	-64.68
852.887	13.14
853.069	-72.87
853.251	-52.39
853.432	-11.43
853.614	-17.58
853.796	56.15
853.977	-7.34
854.159	33.62
854.34	-38.06
854.522	-3.24
854.703	-46.25
854.885	-76.97
855.066	31.57
855.248	-93.35
855.429	84.82
855.611	-5.29
855.792	-160.94
855.974	-93.35
856.155	17.24
856.336	-175.27
856.518	45.91
856.699	-31.91
856.881	-64.68
857.062	-54.44
857.243	-64.68
857.424	70.48
857.606	-19.63
857.787	29.52
857.968	-7.34
858.149	31.57
858.331	82.77
858.512	-7.34
858.693	33.62
858.874	27.48
859.055	13.14
859.236	-40.11
859.417	-9.39
859.598	39.76
859.779	-3.24
859.961	-109.74
860.142	-23.72
860.323	19.29
860.504	7
860.685	11.09
860.865	250.71
861.046	25.43
861.227	4.95
861.408	29.52
861.589	-64.68
861.77	17.24
861.951	-44.2
862.132	62.29
862.313	-54.44
862.493	4.95
862.674	9.05
862.855	-15.53
863.036	-105.64
863.216	-101.55
863.397	-11.43
863.578	-95.4
863.759	344.91
863.939	-19.63
864.12	111.44
864.301	33.62
864.481	-36.01
864.662	52.05
864.842	0.85
865.023	70.48
865.204	-105.64
865.384	43.86
865.565	74.58
865.745	-13.48
865.926	4.95
866.106	-89.26
866.287	50
866.467	84.82
866.648	4.95
866.828	-183.46
867.008	-68.78
867.189	27.48
867.369	-9.39
867.549	33.62
867.73	-15.53
867.91	15.19
868.09	-38.06
868.271	-83.11
868.451	-89.26
868.631	43.86
868.811	37.72
868.992	-105.64
869.172	-193.7
869.352	93.01
869.532	-89.26
869.712	-68.78
869.892	72.53
870.073	107.35
870.253	66.39
870.433	-31.91
870.613	-23.72
870.793	101.2
870.973	105.3
871.153	113.49
871.333	58.2
871.513	168.79
871.693	74.58
871.873	97.11
872.053	107.35
872.233	90.96
872.412	15.19
872.592	31.57
872.772	117.59
872.952	-36.01
873.132	-105.64
873.312	-9.39
873.492	11.09
873.671	-3.24
873.851	-31.91
874.031	-97.45
874.211	-177.32
874.39	-60.59
874.57	4.95
874.75	-33.96
874.929	19.29
875.109	-93.35
875.289	-19.63
875.468	76.63
875.648	88.92
875.827	-68.78
876.007	-23.72
876.186	0.85
876.366	117.59
876.545	62.29
876.725	33.62
876.904	31.57
877.084	13.14
877.263	-60.59
877.443	33.62
877.622	148.31
877.802	17.24
877.981	2.9
878.16	-3.24
878.34	0.85
878.519	-56.49
878.698	43.86
878.878	37.72
879.057	-68.78
879.236	-115.88
879.415	-33.96
879.595	107.35
879.774	56.15
879.953	-9.39
880.132	-64.68
880.311	142.16
880.49	-3.24
880.67	-154.79
880.849	-23.72
881.028	17.24
881.207	136.02
881.386	7
881.565	123.73
881.744	-148.65
881.923	131.92
882.102	-54.44
882.281	41.81
882.46	-40.11
882.639	641.87
882.818	41.81
882.997	-52.39
883.176	-74.92
883.354	17.24
883.533	109.4
883.712	33.62
883.891	-64.68
884.07	19.29
884.249	-95.4
884.427	21.33
884.606	-23.72
884.785	-13.48
884.964	66.39
885.142	82.77
885.321	-66.73
885.5	82.77
885.678	-31.91
885.857	-62.63
886.036	215.89
886.214	78.68
886.393	15.19
886.571	-76.97
886.75	39.76
886.928	41.81
887.107	15.19
887.285	-101.55
887.464	50
887.642	-3.24
887.821	-54.44
887.999	242.51
888.178	-27.82
888.356	88.92
888.534	152.4
888.713	-97.45
888.891	-15.53
889.07	-115.88
889.248	-58.54
889.426	-50.35
889.604	23.38
889.783	0.85
889.961	0.85
890.139	-50.35
890.317	-156.84
890.496	189.27
890.674	-146.6
890.852	68.44
891.03	-11.43
891.208	2.9
891.386	152.4
891.564	56.15
891.742	58.2
891.921	-3.24
892.099	17.24
892.277	172.88
892.455	-81.07
892.633	33.62
892.811	222.03
892.989	103.25
893.167	33.62
893.344	35.67
893.522	-27.82
893.7	-60.59
893.878	148.31
894.056	45.91
894.234	-83.11
894.412	-134.31
894.589	-11.43
894.767	-97.45
894.945	-48.3
895.123	-27.82
895.301	33.62
895.478	64.34
895.656	72.53
895.834	-40.11
896.011	-38.06
896.189	-23.72
896.367	19.29
896.544	-154.79
896.722	-5.29
896.899	35.67
897.077	-29.87
897.255	25.43
897.432	-58.54
897.61	-113.83
897.787	-97.45
897.965	142.16
898.142	-7.34
898.32	-72.87
898.497	54.1
898.674	-52.39
898.852	115.54
899.029	90.96
899.207	-83.11
899.384	88.92
899.561	-7.34
899.739	-85.16
899.916	-134.31
900.093	-9.39
900.27	-58.54
900.448	99.16
900.625	115.54
900.802	33.62
900.979	-119.98
901.156	101.2
901.334	107.35
901.511	27.48
901.688	215.89
901.865	-56.49
902.042	21.33
902.219	109.4
902.396	125.78
902.573	-52.39
902.75	-95.4
902.927	103.25
903.104	-54.44
903.281	-95.4
903.458	15.19
903.635	-97.45
903.812	-31.91
903.989	54.1
904.166	37.72
904.343	-74.92
904.52	-23.72
904.696	-64.68
904.873	-33.96
905.05	-60.59
905.227	-29.87
905.404	-48.3
905.58	13.14
905.757	-126.12
905.934	-109.74
906.111	-29.87
906.287	-140.46
906.464	-107.69
906.641	-79.02
906.817	-124.07
906.994	-1.19
907.17	-23.72
907.347	21.33
907.524	-25.77
907.7	35.67
907.877	107.35
908.053	-162.98
908.23	-109.74
908.406	7
908.583	-126.12
908.759	-83.11
908.935	-23.72
909.112	-11.43
909.288	86.87
909.465	105.3
909.641	25.43
909.817	-40.11
909.994	74.58
910.17	90.96
910.346	-58.54
910.523	-193.7
910.699	-119.98
910.875	-5.29
911.051	74.58
911.228	-64.68
911.404	-42.15
911.58	328.53
911.756	-91.31
911.932	-44.2
912.108	66.39
912.284	193.36
912.46	-81.07
912.637	-113.83
912.813	-52.39
912.989	133.97
913.165	-60.59
913.341	58.2
913.517	13.14
913.693	27.48
913.869	29.52
914.044	-36.01
914.22	-134.31
914.396	-40.11
914.572	-171.18
914.748	-89.26
914.924	-3.24
915.1	7
915.276	-132.26
915.451	0.85
915.627	45.91
915.803	-76.97
915.979	-128.17
916.154	0.85
916.33	-60.59
916.506	101.2
916.681	168.79
916.857	-5.29
917.033	-124.07
917.208	-101.55
917.384	80.72
917.56	50
917.735	-7.34
917.911	-79.02
918.086	138.07
918.262	-105.64
918.437	-64.68
918.613	-167.08
918.788	-25.77
918.964	174.93
919.139	-156.84
919.314	60.24
919.49	74.58
919.665	4.95
919.841	-15.53
920.016	-3.24
920.191	82.77
920.367	-54.44
920.542	84.82
920.717	-83.11
920.892	-113.83
921.068	0.85
921.243	-15.53
921.418	-19.63
921.593	88.92
921.769	54.1
921.944	56.15
922.119	-62.63
922.294	7
922.469	-68.78
922.644	23.38
922.819	-3.24
922.994	86.87
923.169	-54.44
923.344	29.52
923.519	-101.55
923.694	82.77
923.869	9.05
924.044	33.62
924.219	-93.35
924.394	-7.34
924.569	95.06
924.744	-146.6
924.919	78.68
925.094	-23.72
925.268	-52.39
925.443	-19.63
925.618	-48.3
925.793	88.92
925.968	-72.87
926.142	45.91
926.317	2.9
926.492	-31.91
926.666	119.64
926.841	11.09
927.016	88.92
927.19	-122.02
927.365	-74.92
927.54	25.43
927.714	-70.83
927.889	-3.24
928.063	-130.22
928.238	50
928.412	-13.48
928.587	-68.78
928.761	31.57
928.936	-64.68
929.11	25.43
929.285	78.68
929.459	-62.63
929.634	9.05
929.808	-54.44
929.982	-68.78
930.157	-50.35
930.331	-76.97
930.505	41.81
930.68	-48.3
930.854	15.19
931.028	148.31
931.202	93.01
931.377	-68.78
931.551	27.48
931.725	-52.39
931.899	-46.25
932.073	111.44
932.247	111.44
932.422	-97.45
932.596	37.72
932.77	-76.97
932.944	33.62
933.118	-15.53
933.292	-138.41
933.466	-89.26
933.64	-19.63
933.814	-46.25
933.988	70.48
934.162	-54.44
934.336	19.29
934.51	-72.87
934.683	-56.49
934.857	66.39
935.031	129.88
935.205	-31.91
935.379	9.05
935.553	2.9
935.726	11.09
935.9	-11.43
936.074	11.09
936.248	-48.3
936.421	-95.4
936.595	-36.01
936.769	-52.39
936.943	-97.45
937.116	-99.5
937.29	-107.69
937.463	101.2
937.637	47.96
937.811	-62.63
937.984	-42.15
938.158	35.67
938.331	-79.02
938.505	-83.11
938.678	60.24
938.852	66.39
939.025	13.14
939.199	-60.59
939.372	95.06
939.545	-40.11
939.719	-54.44
939.892	54.1
940.066	-7.34
940.239	62.29
940.412	9.05
940.586	-187.56
940.759	-15.53
940.932	58.2
941.105	-124.07
941.279	-91.31
941.452	-7.34
941.625	-124.07
941.798	37.72
941.971	37.72
942.144	-21.67
942.318	-25.77
942.491	54.1
942.664	-70.83
942.837	-132.26
943.01	-101.55
943.183	0.85
943.356	105.3
943.529	-31.91
943.702	-27.82
943.875	-42.15
944.048	-42.15
944.221	-27.82
944.394	-46.25
944.567	74.58
944.74	74.58
944.912	-91.31
945.085	4.95
945.258	37.72
945.431	-15.53
945.604	62.29
945.776	389.97
945.949	72.53
946.122	72.53
946.295	-21.67
946.467	-50.35
946.64	-64.68
946.813	-85.16
946.985	-124.07
947.158	-72.87
947.331	37.72
947.503	27.48
947.676	-62.63
947.848	62.29
948.021	80.72
948.194	-44.2
948.366	-205.99
948.539	-76.97
948.711	11.09
948.883	0.85
949.056	-56.49
949.228	-171.18
949.401	-81.07
949.573	-79.02
949.746	17.24
949.918	-5.29
950.09	66.39
950.263	-185.51
950.435	-23.72
950.607	17.24
950.779	93.01
950.952	-60.59
951.124	-183.46
951.296	-38.06
951.468	-3.24
951.64	174.93
951.813	-167.08
951.985	0.85
952.157	-31.91
952.329	133.97
952.501	-97.45
952.673	-68.78
952.845	-138.41
953.017	-38.06
953.189	-40.11
953.361	50
953.533	103.25
953.705	-76.97
953.877	-17.58
954.049	-105.64
954.221	-91.31
954.393	-103.59
954.565	19.29
954.737	-31.91
954.909	-52.39
955.08	45.91
955.252	-27.82
955.424	-38.06
955.596	164.69
955.768	-11.43
955.939	74.58
956.111	90.96
956.283	-83.11
956.454	-48.3
956.626	68.44
956.798	86.87
956.969	-13.48
957.141	-5.29
957.313	-46.25
957.484	-83.11
957.656	35.67
957.827	84.82
957.999	43.86
958.17	47.96
958.342	82.77
958.513	-11.43
958.685	-56.49
958.856	-9.39
959.028	27.48
959.199	-83.11
959.37	125.78
959.542	-3.24
959.713	-40.11
959.884	142.16
960.056	52.05
960.227	-48.3
960.398	109.4
960.57	-33.96
960.741	-19.63
960.912	17.24
961.083	54.1
961.254	-79.02
961.426	23.38
961.597	2.9
961.768	25.43
961.939	25.43
962.11	-42.15
962.281	-7.34
962.452	-62.63
962.623	297.81
962.794	-36.01
962.965	52.05
963.136	88.92
963.307	-56.49
963.478	-13.48
963.649	25.43
963.82	99.16
963.991	41.81
964.162	-87.21
964.333	-70.83
964.504	-5.29
964.675	35.67
964.845	156.5
965.016	107.35
965.187	-46.25
965.358	-40.11
965.529	158.55
965.699	68.44
965.87	101.2
966.041	4.95
966.211	-117.93
966.382	52.05
966.553	4.95
966.723	-27.82
966.894	-74.92
967.065	-99.5
967.235	41.81
967.406	-48.3
967.576	-79.02
967.747	19.29
967.917	-36.01
968.088	90.96
968.258	29.52
968.429	19.29
968.599	82.77
968.769	109.4
968.94	23.38
969.11	-66.73
969.281	-23.72
969.451	13.14
969.621	-17.58
969.792	-70.83
969.962	111.44
970.132	-38.06
970.302	93.01
970.473	-58.54
970.643	54.1
970.813	21.33
970.983	-44.2
971.153	70.48
971.324	39.76
971.494	-72.87
971.664	-76.97
971.834	-29.87
972.004	179.03
972.174	-109.74
972.344	56.15
972.514	-74.92
972.684	9.05
972.854	54.1
973.024	-23.72
973.194	-31.91
973.364	-68.78
973.534	-56.49
973.704	148.31
973.874	-44.2
974.043	72.53
974.213	13.14
974.383	45.91
974.553	70.48
974.723	9.05
974.893	7
975.062	29.52
975.232	35.67
975.402	-68.78
975.571	17.24
975.741	39.76
975.911	68.44
976.08	168.79
976.25	-42.15
976.42	17.24
976.589	82.77
976.759	-40.11
976.928	-60.59
977.098	7
977.267	-48.3
977.437	-1.19
977.606	27.48
977.776	35.67
977.945	119.64
978.115	29.52
978.284	-195.75
978.454	-72.87
978.623	-46.25
978.792	-19.63
978.962	2.9
979.131	131.92
979.3	-158.89
979.47	-107.69
979.639	-56.49
979.808	2.9
979.977	279.38
980.147	0.85
980.316	-13.48
980.485	76.63
980.654	-76.97
980.823	160.59
980.992	-29.87
981.162	41.81
981.331	23.38
981.5	-7.34
981.669	23.38
981.838	-38.06
982.007	-36.01
982.176	54.1
982.345	-85.16
982.514	-31.91
982.683	31.57
982.852	-31.91
983.021	-72.87
983.19	25.43
983.358	-40.11
983.527	-7.34
983.696	-76.97
983.865	101.2
984.034	27.48
984.203	90.96
984.371	-5.29
984.54	-13.48
984.709	254.8
984.878	-60.59
985.046	-52.39
985.215	66.39
985.384	-158.89
985.552	37.72
985.721	-7.34
985.889	-93.35
986.058	-167.08
986.227	-50.35
986.395	-97.45
986.564	-68.78
986.732	-72.87
986.901	41.81
987.069	-72.87
987.238	150.36
987.406	-23.72
987.575	15.19
987.743	174.93
987.911	-42.15
988.08	4.95
988.248	-52.39
988.416	-66.73
988.585	-107.69
988.753	-38.06
988.921	-11.43
989.09	-115.88
989.258	187.22
989.426	103.25
989.594	115.54
989.763	50
989.931	-7.34
990.099	25.43
990.267	93.01
990.435	-146.6
990.603	-25.77
990.771	-95.4
990.939	-97.45
991.107	17.24
991.275	25.43
991.443	4.95
991.611	-29.87
991.779	107.35
991.947	-5.29
992.115	-74.92
992.283	105.3
992.451	80.72
992.619	193.36
992.787	-9.39
992.955	-138.41
993.123	-38.06
993.29	27.48
993.458	-15.53
993.626	9.05
993.794	-89.26
993.962	-95.4
994.129	47.96
994.297	0.85
994.465	-72.87
994.632	-40.11
994.8	62.29
994.968	117.59
995.135	90.96
995.303	101.2
995.47	-40.11
995.638	179.03
995.806	41.81
995.973	86.87
996.141	60.24
996.308	17.24
996.476	43.86
996.643	52.05
996.81	105.3
996.978	144.21
997.145	103.25
997.313	11.09
997.48	-89.26
997.647	349.01
997.815	183.12
997.982	58.2
998.149	35.67
998.317	-52.39
998.484	-50.35
998.651	-160.94
998.818	0.85
998.986	-93.35
999.153	56.15
999.32	-7.34
999.487	-72.87
999.654	-185.51
999.821	4.95
999.988	19.29
1000.155	-11.43
1000.323	-124.07
1000.49	58.2
1000.657	156.5
1000.824	33.62
1000.991	193.36
1001.158	-85.16
1001.324	-146.6
1001.491	144.21
1001.658	66.39
1001.825	-9.39
1001.992	181.07
1002.159	9.05
1002.326	-54.44
1002.493	13.14
1002.659	41.81
1002.826	-119.98
1002.993	-87.21
1003.16	121.68
1003.326	-5.29
1003.493	70.48
1003.66	-62.63
1003.827	37.72
1003.993	-105.64
1004.16	50
1004.326	164.69
1004.493	76.63
1004.66	25.43
1004.826	60.24
1004.993	189.27
1005.159	78.68
1005.326	52.05
1005.492	-130.22
1005.659	45.91
1005.825	-113.83
1005.992	11.09
1006.158	131.92
1006.325	103.25
1006.491	-119.98
1006.657	-62.63
1006.824	-29.87
1006.99	58.2
1007.156	68.44
1007.323	-3.24
1007.489	31.57
1007.655	-48.3
1007.821	52.05
1007.988	-23.72
1008.154	-119.98
1008.32	58.2
1008.486	13.14
1008.652	4.95
1008.818	43.86
1008.985	-40.11
1009.151	-31.91
1009.317	82.77
1009.483	-74.92
1009.649	-19.63
1009.815	11.09
1009.981	-72.87
1010.147	-31.91
1010.313	127.83
1010.479	-21.67
1010.645	-60.59
1010.811	-19.63
1010.976	50
1011.142	-11.43
1011.308	-50.35
1011.474	-60.59
1011.64	-103.59
1011.806	74.58
1011.971	25.43
1012.137	-99.5
1012.303	84.82
1012.469	37.72
1012.634	25.43
1012.8	-25.77
1012.966	47.96
1013.131	-36.01
1013.297	23.38
1013.463	-19.63
1013.628	78.68
1013.794	144.21
1013.959	-117.93
1014.125	-76.97
1014.291	21.33
1014.456	31.57
1014.622	-56.49
1014.787	9.05
1014.952	11.09
1015.118	66.39
1015.283	90.96
1015.449	174.93
1015.614	115.54
1015.779	-36.01
1015.945	-99.5
1016.11	29.52
1016.275	-13.48
1016.441	64.34
1016.606	-23.72
1016.771	-38.06
1016.937	-64.68
1017.102	-27.82
1017.267	21.33
1017.432	-13.48
1017.597	-76.97
1017.762	164.69
1017.928	35.67
1018.093	-99.5
1018.258	-38.06
1018.423	76.63
1018.588	-89.26
1018.753	-54.44
1018.918	99.16
1019.083	2.9
1019.248	33.62
1019.413	21.33
1019.578	115.54
1019.743	150.36
1019.908	-60.59
1020.073	66.39
1020.237	-89.26
1020.402	-72.87
1020.567	4.95
1020.732	-68.78
1020.897	117.59
1021.062	148.31
1021.226	4.95
1021.391	293.71
1021.556	-128.17
1021.72	-9.39
1021.885	-33.96
1022.05	107.35
1022.214	-167.08
1022.379	37.72
1022.544	23.38
1022.708	109.4
1022.873	179.03
1023.037	-36.01
1023.202	111.44
1023.366	107.35
1023.531	-52.39
1023.695	-97.45
1023.86	0.85
1024.024	-38.06
1024.189	164.69
1024.353	70.48
1024.518	-42.15
1024.682	23.38
1024.846	45.91
1025.011	2.9
1025.175	-64.68
1025.339	35.67
1025.504	-11.43
1025.668	93.01
1025.832	58.2
1025.996	95.06
1026.161	-70.83
1026.325	-81.07
1026.489	64.34
1026.653	99.16
1026.817	60.24
1026.981	4.95
1027.145	162.64
1027.309	-13.48
1027.474	25.43
1027.638	-19.63
1027.802	9.05
1027.966	56.15
1028.13	45.91
1028.294	-44.2
1028.458	-9.39
1028.621	0.85
1028.785	43.86
1028.949	-97.45
1029.113	164.69
1029.277	-50.35
1029.441	156.5
1029.605	121.68
1029.768	-40.11
1029.932	-33.96
1030.096	-23.72
1030.26	74.58
1030.423	-89.26
1030.587	-89.26
1030.751	33.62
1030.915	242.51
1031.078	-7.34
1031.242	-85.16
1031.405	-23.72
1031.569	78.68
1031.733	70.48
1031.896	95.06
1032.06	-81.07
1032.223	29.52
1032.387	152.4
1032.55	-58.54
1032.714	62.29
1032.877	33.62
1033.041	58.2
1033.204	-193.7
1033.367	21.33
1033.531	-62.63
1033.694	-85.16
1033.858	97.11
1034.021	95.06
1034.184	-21.67
1034.347	-17.58
1034.511	72.53
1034.674	-119.98
1034.837	4.95
1035	-124.07
1035.164	62.29
1035.327	66.39
1035.49	27.48
1035.653	0.85
1035.816	80.72
1035.979	115.54
1036.142	125.78
1036.305	-19.63
1036.468	-29.87
1036.631	82.77
1036.794	15.19
1036.957	99.16
1037.12	-52.39
1037.283	60.24
1037.446	41.81
1037.609	2.9
1037.772	-54.44
1037.935	142.16
1038.098	9.05
1038.261	-56.49
1038.424	-3.24
1038.586	-119.98
1038.749	74.58
1038.912	-60.59
1039.075	58.2
1039.237	-17.58
1039.4	-25.77
1039.563	-107.69
1039.725	99.16
1039.888	-9.39
1040.051	-60.59
1040.213	23.38
1040.376	-58.54
1040.539	56.15
1040.701	-83.11
1040.864	50
1041.026	21.33
1041.189	27.48
1041.351	4.95
1041.514	9.05
1041.676	50
1041.838	25.43
1042.001	576.33
1042.163	21.33
1042.326	-23.72
1042.488	-27.82
1042.65	101.2
1042.813	37.72
1042.975	-23.72
1043.137	131.92
1043.3	103.25
1043.462	-7.34
1043.624	127.83
1043.786	-99.5
1043.948	156.5
1044.111	-81.07
1044.273	-5.29
1044.435	11.09
1044.597	162.64
1044.759	-197.8
1044.921	58.2
1045.083	-46.25
