Data from RUBY_D_USB4F064561__0__10-26-39-247.txt Node

Date: Wed Jun 02 10:26:39 EDT 2021
User: storrer.a
Spectrometer: USB4F06456
Trigger mode: 4
Integration Time (sec): 3.250000E-1
Scans to average: 1
Electric dark correction enabled: true
Nonlinearity correction enabled: false
Boxcar width: 0
XAxis mode: Wavelengths
Number of Pixels in Spectrum: 3648
>>>>>Begin Spectral Data<<<<<
345.532	-481.1
345.749	-481.1
345.966	-481.1
346.184	-517.97
346.401	-503.63
346.618	80.04
346.836	16.55
347.053	34.99
347.27	-157.52
347.487	-55.12
347.705	166.06
347.922	-157.52
348.139	51.37
348.356	-48.98
348.574	47.27
348.791	24.75
349.008	-1.88
349.225	-63.32
349.442	-120.66
349.659	-48.98
349.877	-10.07
350.094	-65.36
350.311	110.76
350.528	45.23
350.745	53.42
350.962	-73.56
351.179	0.17
351.396	20.65
351.613	34.99
351.83	-81.75
352.047	-122.71
352.264	14.51
352.481	43.18
352.698	-157.52
352.915	-202.58
353.132	-155.47
353.349	-46.93
353.566	-16.21
353.783	-51.03
354	123.05
354.217	-159.57
354.433	329.89
354.65	30.89
354.867	-104.28
355.084	-77.65
355.301	88.23
355.518	32.94
355.735	51.37
355.951	-100.18
356.168	43.18
356.385	-96.08
356.602	-67.41
356.818	-40.79
357.035	18.6
357.252	61.61
357.469	-253.78
357.685	-124.76
357.902	-212.82
358.119	-79.7
358.335	-149.33
358.552	-44.88
358.769	59.56
358.985	51.37
359.202	-161.62
359.419	178.34
359.635	-46.93
359.852	-124.76
360.068	-130.9
360.285	-36.69
360.501	112.81
360.718	51.37
360.934	84.14
361.151	-106.32
361.367	-53.08
361.584	-10.07
361.8	-79.7
362.017	-167.76
362.233	-61.27
362.45	112.81
362.666	-173.91
362.883	118.95
363.099	-38.74
363.315	-59.22
363.532	-42.84
363.748	-110.42
363.965	-253.78
364.181	-51.03
364.397	-108.37
364.614	-12.12
364.83	-32.6
365.046	182.44
365.262	-118.61
365.479	20.65
365.695	204.97
365.911	237.74
366.128	-292.69
366.344	-36.69
366.56	-155.47
366.776	-96.08
366.992	-73.56
367.209	116.9
367.425	-110.42
367.641	-81.75
367.857	-53.08
368.073	194.73
368.289	-53.08
368.505	-12.12
368.722	-8.02
368.938	2.22
369.154	-85.84
369.37	110.76
369.586	-73.56
369.802	-46.93
370.018	34.99
370.234	-79.7
370.45	-73.56
370.666	258.21
370.882	-237.39
371.098	-5.97
371.314	-87.89
371.53	-128.85
371.746	-247.63
371.962	-104.28
372.178	-5.97
372.393	-151.38
372.609	-83.8
372.825	-53.08
373.041	-63.32
373.257	-257.87
373.473	-122.71
373.689	118.95
373.904	-296.78
374.12	12.46
374.336	139.43
374.552	47.27
374.767	-38.74
374.983	-94.04
375.199	80.04
375.415	-65.36
375.63	-67.41
375.846	-302.93
376.062	86.19
376.278	-110.42
376.493	-46.93
376.709	-40.79
376.925	-100.18
377.14	-3.93
377.356	-67.41
377.571	-96.08
377.787	235.69
378.003	47.27
378.218	-124.76
378.434	-12.12
378.649	227.5
378.865	-157.52
379.08	-44.88
379.296	43.18
379.511	14.51
379.727	77.99
379.942	-46.93
380.158	57.51
380.373	-20.31
380.589	-14.17
380.804	0.17
381.02	-34.64
381.235	96.43
381.45	-34.64
381.666	-5.97
381.881	-32.6
382.096	-141.14
382.312	-20.31
382.527	-182.1
382.742	6.31
382.958	-108.37
383.173	133.29
383.388	530.59
383.604	-104.28
383.819	-28.5
384.034	-165.71
384.249	-65.36
384.465	-91.99
384.68	-114.52
384.895	-89.94
385.11	-100.18
385.325	-14.17
385.541	63.66
385.756	-116.56
385.971	55.47
386.186	-61.27
386.401	-67.41
386.616	-36.69
386.831	-114.52
387.046	10.41
387.261	-118.61
387.477	102.57
387.692	12.46
387.907	-30.55
388.122	-24.4
388.337	47.27
388.552	16.55
388.767	-153.43
388.982	-75.6
389.197	96.43
389.411	28.84
389.626	8.36
389.841	-149.33
390.056	-182.1
390.271	-77.65
390.486	-10.07
390.701	-188.24
390.916	-155.47
391.131	22.7
391.345	-96.08
391.56	-161.62
391.775	-14.17
391.99	-55.12
392.205	-151.38
392.42	-14.17
392.634	135.34
392.849	106.67
393.064	-3.93
393.279	8.36
393.493	-94.04
393.708	-157.52
393.923	-67.41
394.137	-8.02
394.352	18.6
394.567	-28.5
394.781	-46.93
394.996	20.65
395.211	106.67
395.425	-114.52
395.64	-130.9
395.854	157.86
396.069	-28.5
396.284	-91.99
396.498	-147.28
396.713	-81.75
396.927	-55.12
397.142	-135
397.356	-53.08
397.571	-83.8
397.785	75.95
398	229.54
398.214	-94.04
398.428	53.42
398.643	12.46
398.857	10.41
399.072	61.61
399.286	-46.93
399.5	30.89
399.715	104.62
399.929	16.55
400.144	-1.88
400.358	-106.32
400.572	-18.26
400.787	-153.43
401.001	-106.32
401.215	-28.5
401.429	49.32
401.644	-48.98
401.858	47.27
402.072	-8.02
402.286	80.04
402.501	118.95
402.715	55.47
402.929	-104.28
403.143	-51.03
403.357	-130.9
403.571	-147.28
403.786	-171.86
404	24.75
404.214	-63.32
404.428	24.75
404.642	67.75
404.856	178.34
405.07	-112.47
405.284	272.55
405.498	98.47
405.712	92.33
405.926	-1.88
406.14	41.13
406.354	-14.17
406.568	-69.46
406.782	-94.04
406.996	-126.8
407.21	-10.07
407.424	65.71
407.638	-212.82
407.852	16.55
408.066	-44.88
408.28	32.94
408.493	65.71
408.707	-198.48
408.921	-85.84
409.135	178.34
409.349	-57.17
409.563	194.73
409.776	-42.84
409.99	-118.61
410.204	53.42
410.418	94.38
410.631	-3.93
410.845	-3.93
411.059	-102.23
411.273	18.6
411.486	-100.18
411.7	-26.45
411.914	-112.47
412.127	41.13
412.341	82.09
412.555	-128.85
412.768	20.65
412.982	-106.32
413.195	-57.17
413.409	-120.66
413.623	-75.6
413.836	-79.7
414.05	-98.13
414.263	-149.33
414.477	-239.44
414.69	10.41
414.904	59.56
415.117	0.17
415.331	2.22
415.544	-87.89
415.758	-42.84
415.971	57.51
416.185	-143.19
416.398	-110.42
416.611	-132.95
416.825	-67.41
417.038	121
417.251	71.85
417.465	-12.12
417.678	-182.1
417.891	-14.17
418.105	-89.94
418.318	-120.66
418.531	106.67
418.745	-110.42
418.958	-239.44
419.171	41.13
419.384	67.75
419.598	-100.18
419.811	2.22
420.024	6.31
420.237	-55.12
420.45	-94.04
420.664	-12.12
420.877	4.27
421.09	12.46
421.303	-12.12
421.516	342.18
421.729	-81.75
421.942	-98.13
422.155	32.94
422.368	-26.45
422.582	-48.98
422.795	-110.42
423.008	51.37
423.221	-1.88
423.434	-5.97
423.647	-96.08
423.86	-112.47
424.073	-42.84
424.286	-30.55
424.498	104.62
424.711	-30.55
424.924	-71.51
425.137	-46.93
425.35	-22.36
425.563	-3.93
425.776	106.67
425.989	80.04
426.202	-186.19
426.414	110.76
426.627	55.47
426.84	12.46
427.053	-38.74
427.266	88.23
427.478	-108.37
427.691	14.51
427.904	-12.12
428.117	-106.32
428.329	45.23
428.542	-118.61
428.755	-32.6
428.967	-165.71
429.18	-100.18
429.393	18.6
429.605	61.61
429.818	745.63
430.031	-96.08
430.243	-51.03
430.456	-89.94
430.668	-218.96
430.881	-128.85
431.094	-83.8
431.306	-67.41
431.519	-98.13
431.731	-53.08
431.944	-32.6
432.156	-153.43
432.369	-155.47
432.581	153.77
432.794	39.08
433.006	-186.19
433.218	252.07
433.431	-14.17
433.643	102.57
433.856	94.38
434.068	-167.76
434.28	-63.32
434.493	147.62
434.705	-124.76
434.918	-147.28
435.13	-212.82
435.342	75.95
435.554	80.04
435.767	10.41
435.979	14.51
436.191	-5.97
436.404	63.66
436.616	-81.75
436.828	86.19
437.04	114.86
437.252	-114.52
437.465	-227.15
437.677	-87.89
437.889	-192.34
438.101	-55.12
438.313	-5.97
438.525	-42.84
438.737	10.41
438.949	-57.17
439.162	-46.93
439.374	-122.71
439.586	153.77
439.798	-145.24
440.01	65.71
440.222	155.82
440.434	-18.26
440.646	47.27
440.858	-178
441.07	-130.9
441.282	-175.95
441.494	-48.98
441.706	-53.08
441.918	-10.07
442.129	-14.17
442.341	108.71
442.553	-106.32
442.765	-104.28
442.977	-57.17
443.189	14.51
443.401	100.52
443.612	-214.87
443.824	-161.62
444.036	-157.52
444.248	-120.66
444.46	-120.66
444.671	-112.47
444.883	92.33
445.095	-65.36
445.307	-51.03
445.518	26.79
445.73	-108.37
445.942	-30.55
446.153	-18.26
446.365	-214.87
446.577	-151.38
446.788	174.25
447	-67.41
447.212	-3.93
447.423	-12.12
447.635	-22.36
447.846	-69.46
448.058	-194.39
448.269	30.89
448.481	4.27
448.692	41.13
448.904	-12.12
449.115	61.61
449.327	-167.76
449.538	-51.03
449.75	-83.8
449.961	88.23
450.173	22.7
450.384	-79.7
450.596	-34.64
450.807	63.66
451.018	75.95
451.23	-61.27
451.441	12.46
451.652	24.75
451.864	26.79
452.075	-8.02
452.286	-112.47
452.498	-20.31
452.709	-55.12
452.92	-42.84
453.131	-83.8
453.343	0.17
453.554	14.51
453.765	-149.33
453.976	0.17
454.187	-116.56
454.399	-145.24
454.61	-112.47
454.821	-24.4
455.032	49.32
455.243	61.61
455.454	-32.6
455.665	-124.76
455.877	-67.41
456.088	57.51
456.299	-153.43
456.51	-100.18
456.721	-44.88
456.932	141.48
457.143	-69.46
457.354	-122.71
457.565	-69.46
457.776	-26.45
457.987	-32.6
458.198	-94.04
458.409	-3.93
458.62	-196.43
458.83	-91.99
459.041	-143.19
459.252	-135
459.463	-173.91
459.674	-61.27
459.885	55.47
460.096	-55.12
460.306	-122.71
460.517	41.13
460.728	-28.5
460.939	-89.94
461.15	-55.12
461.36	-55.12
461.571	-85.84
461.782	-44.88
461.993	0.17
462.203	-38.74
462.414	-178
462.625	-8.02
462.835	-81.75
463.046	-1.88
463.257	-22.36
463.467	-3.93
463.678	-69.46
463.889	-14.17
464.099	4.27
464.31	88.23
464.52	-5.97
464.731	-313.17
464.941	-108.37
465.152	-120.66
465.362	98.47
465.573	-137.04
465.783	67.75
465.994	77.99
466.204	121
466.415	-178
466.625	24.75
466.836	174.25
467.046	8.36
467.257	26.79
467.467	-141.14
467.677	59.56
467.888	192.68
468.098	26.79
468.308	-14.17
468.519	41.13
468.729	47.27
468.939	-81.75
469.15	-110.42
469.36	225.45
469.57	-96.08
469.78	-155.47
469.991	45.23
470.201	116.9
470.411	-67.41
470.621	-18.26
470.831	-102.23
471.042	129.19
471.252	18.6
471.462	39.08
471.672	63.66
471.882	153.77
472.092	247.97
472.302	377
472.512	-223.06
472.723	12.46
472.933	-38.74
473.143	4.27
473.353	-157.52
473.563	96.43
473.773	-32.6
473.983	-57.17
474.193	-53.08
474.403	-79.7
474.613	108.71
474.822	-22.36
475.032	-44.88
475.242	121
475.452	-173.91
475.662	-135
475.872	-28.5
476.082	227.5
476.292	24.75
476.502	22.7
476.711	-65.36
476.921	4.27
477.131	-83.8
477.341	-126.8
477.551	24.75
477.76	-38.74
477.97	-126.8
478.18	-104.28
478.39	-55.12
478.599	161.96
478.809	-69.46
479.019	-61.27
479.228	43.18
479.438	-79.7
479.648	-1.88
479.857	-120.66
480.067	-94.04
480.276	86.19
480.486	-5.97
480.696	-48.98
480.905	24.75
481.115	-83.8
481.324	84.14
481.534	55.47
481.743	-89.94
481.953	98.47
482.162	57.51
482.372	49.32
482.581	-159.57
482.791	424.1
483	188.58
483.21	-132.95
483.419	14.51
483.628	-1.88
483.838	-180.05
484.047	-63.32
484.257	-8.02
484.466	80.04
484.675	-40.79
484.885	-1.88
485.094	-98.13
485.303	59.56
485.512	28.84
485.722	-124.76
485.931	-75.6
486.14	211.11
486.349	-194.39
486.559	51.37
486.768	32.94
486.977	-51.03
487.186	231.59
487.395	-22.36
487.605	-38.74
487.814	184.49
488.023	108.71
488.232	129.19
488.441	37.03
488.65	331.94
488.859	293.03
489.068	-59.22
489.277	96.43
489.486	-63.32
489.695	-102.23
489.904	-34.64
490.113	137.38
490.322	-12.12
490.531	41.13
490.74	-118.61
490.949	-36.69
491.158	30.89
491.367	192.68
491.576	22.7
491.785	-3.93
491.994	190.63
492.203	-153.43
492.412	73.9
492.62	135.34
492.829	-14.17
493.038	-87.89
493.247	-85.84
493.456	-120.66
493.664	6.31
493.873	-65.36
494.082	-83.8
494.291	47.27
494.499	-12.12
494.708	200.87
494.917	-116.56
495.126	-59.22
495.334	-44.88
495.543	106.67
495.751	-106.32
495.96	84.14
496.169	100.52
496.377	217.26
496.586	-67.41
496.795	-96.08
497.003	-55.12
497.212	-22.36
497.42	51.37
497.629	-26.45
497.837	243.88
498.046	-104.28
498.254	-46.93
498.463	-128.85
498.671	-1.88
498.88	123.05
499.088	30.89
499.297	-151.38
499.505	71.85
499.713	125.1
499.922	-157.52
500.13	-79.7
500.338	137.38
500.547	82.09
500.755	-32.6
500.963	67.75
501.172	-28.5
501.38	8.36
501.588	-51.03
501.797	22.7
502.005	-106.32
502.213	43.18
502.421	6.31
502.63	34.99
502.838	-91.99
503.046	88.23
503.254	-61.27
503.462	-120.66
503.67	-71.51
503.879	-8.02
504.087	-53.08
504.295	55.47
504.503	18.6
504.711	-124.76
504.919	-124.76
505.127	-22.36
505.335	53.42
505.543	-24.4
505.751	34.99
505.959	59.56
506.167	219.3
506.375	141.48
506.583	114.86
506.791	-3.93
506.999	190.63
507.207	71.85
507.415	88.23
507.623	-12.12
507.831	106.67
508.039	-32.6
508.246	96.43
508.454	63.66
508.662	362.66
508.87	37.03
509.078	39.08
509.286	268.45
509.493	82.09
509.701	110.76
509.909	28.84
510.117	-20.31
510.324	118.95
510.532	53.42
510.74	41.13
510.947	28.84
511.155	51.37
511.363	137.38
511.57	55.47
511.778	16.55
511.986	94.38
512.193	47.27
512.401	164.01
512.609	-1.88
512.816	172.2
513.024	176.3
513.231	-22.36
513.439	-53.08
513.646	235.69
513.854	141.48
514.061	98.47
514.269	75.95
514.476	161.96
514.684	219.3
514.891	215.21
515.099	178.34
515.306	317.61
515.513	-16.21
515.721	55.47
515.928	153.77
516.135	43.18
516.343	217.26
516.55	116.9
516.757	-73.56
516.965	-3.93
517.172	77.99
517.379	-14.17
517.587	121
517.794	161.96
518.001	-94.04
518.208	88.23
518.416	209.06
518.623	-30.55
518.83	-147.28
519.037	-5.97
519.244	137.38
519.451	139.43
519.659	137.38
519.866	129.19
520.073	-1.88
520.28	260.26
520.487	84.14
520.694	155.82
520.901	110.76
521.108	98.47
521.315	92.33
521.522	112.81
521.729	145.58
521.936	98.47
522.143	84.14
522.35	57.51
522.557	356.52
522.764	254.12
522.971	96.43
523.178	487.59
523.385	77.99
523.592	170.15
523.799	112.81
524.005	168.1
524.212	321.7
524.419	260.26
524.626	225.45
524.833	311.46
525.04	444.58
525.246	721.06
525.453	891.04
525.66	1468.56
525.867	2484.36
526.073	5179.48
526.28	8648.74
526.487	11716.6
526.693	14122.96
526.9	15857.59
527.107	17852.31
527.313	18331.54
527.52	19486.59
527.727	19892.09
527.933	20420.47
528.14	21509.99
528.346	22898.51
528.553	21819.23
528.759	23684.93
528.966	24049.47
529.173	24651.57
529.379	23930.69
529.586	23852.86
529.792	25091.88
529.999	25323.3
530.205	26179.36
530.411	26345.24
530.618	25741.09
530.824	25743.14
531.031	25728.8
531.237	25810.72
531.443	26920.72
531.65	26949.39
531.856	26961.68
532.062	27055.89
532.269	27666.18
532.475	27905.79
532.681	28006.14
532.888	27502.34
533.094	27445
533.3	27580.17
533.506	27309.83
533.713	27428.62
533.919	27160.33
534.125	26435.35
534.331	26343.19
534.538	24629.04
534.744	22308.69
534.95	17448.86
535.156	12488.68
535.362	9717.78
535.568	7141.44
535.774	5095.52
535.98	3549.3
536.186	2267.27
536.393	1177.75
536.599	716.96
536.805	538.79
537.011	309.41
537.217	133.29
537.423	286.89
537.629	252.07
537.835	329.89
538.04	329.89
538.246	26.79
538.452	204.97
538.658	168.1
538.864	131.24
539.07	293.03
539.276	180.39
539.482	247.97
539.688	243.88
539.893	116.9
540.099	284.84
540.305	352.42
540.511	362.66
540.717	127.14
540.922	288.93
541.128	121
541.334	411.81
541.54	262.31
541.745	354.47
541.951	372.9
542.157	264.36
542.362	370.85
542.568	176.3
542.774	262.31
542.979	331.94
543.185	190.63
543.39	317.61
543.596	231.59
543.802	141.48
544.007	100.52
544.213	174.25
544.418	331.94
544.624	311.46
544.829	288.93
545.035	403.62
545.24	141.48
545.446	276.65
545.651	67.75
545.857	227.5
546.062	211.11
546.267	106.67
546.473	-42.84
546.678	192.68
546.884	82.09
547.089	71.85
547.294	211.11
547.5	227.5
547.705	67.75
547.91	45.23
548.116	141.48
548.321	141.48
548.526	41.13
548.731	24.75
548.937	145.58
549.142	118.95
549.347	55.47
549.552	-8.02
549.757	63.66
549.963	-8.02
550.168	153.77
550.373	196.78
550.578	67.75
550.783	231.59
550.988	260.26
551.193	125.1
551.398	116.9
551.603	-24.4
551.808	20.65
552.013	143.53
552.218	-130.9
552.424	65.71
552.628	84.14
552.833	145.58
553.038	-94.04
553.243	-114.52
553.448	90.28
553.653	20.65
553.858	2.22
554.063	-8.02
554.268	192.68
554.473	-38.74
554.678	-48.98
554.883	22.7
555.087	49.32
555.292	30.89
555.497	-100.18
555.702	96.43
555.907	133.29
556.111	24.75
556.316	16.55
556.521	-81.75
556.725	-14.17
556.93	34.99
557.135	10.41
557.34	-18.26
557.544	82.09
557.749	-1.88
557.954	135.34
558.158	63.66
558.363	129.19
558.567	96.43
558.772	-26.45
558.977	-106.32
559.181	-196.43
559.386	-186.19
559.59	-32.6
559.795	-87.89
559.999	-71.51
560.204	88.23
560.408	-102.23
560.613	-53.08
560.817	-67.41
561.021	-182.1
561.226	43.18
561.43	-53.08
561.635	-132.95
561.839	-10.07
562.043	37.03
562.248	84.14
562.452	100.52
562.656	-153.43
562.861	-57.17
563.065	-81.75
563.269	110.76
563.474	-96.08
563.678	989.34
563.882	34.99
564.086	-145.24
564.291	-122.71
564.495	80.04
564.699	57.51
564.903	-1.88
565.107	-65.36
565.311	-94.04
565.516	223.4
565.72	172.2
565.924	137.38
566.128	168.1
566.332	-71.51
566.536	75.95
566.74	-16.21
566.944	49.32
567.148	37.03
567.352	-59.22
567.556	-124.76
567.76	30.89
567.964	47.27
568.168	-40.79
568.372	-59.22
568.576	118.95
568.78	22.7
568.984	75.95
569.188	-79.7
569.392	-67.41
569.595	-61.27
569.799	94.38
570.003	-81.75
570.207	14.51
570.411	-157.52
570.615	-38.74
570.818	-147.28
571.022	-192.34
571.226	-108.37
571.43	53.42
571.633	121
571.837	-20.31
572.041	-96.08
572.244	-108.37
572.448	-167.76
572.652	20.65
572.855	164.01
573.059	10.41
573.263	-91.99
573.466	108.71
573.67	110.76
573.873	43.18
574.077	-122.71
574.28	-122.71
574.484	86.19
574.687	-96.08
574.891	-79.7
575.094	-73.56
575.298	32.94
575.501	139.43
575.705	143.53
575.908	110.76
576.112	-229.2
576.315	86.19
576.518	-106.32
576.722	2.22
576.925	-218.96
577.129	135.34
577.332	166.06
577.535	-26.45
577.739	-5.97
577.942	-186.19
578.145	-91.99
578.348	6.31
578.552	80.04
578.755	133.29
578.958	612.51
579.161	-40.79
579.365	-46.93
579.568	-57.17
579.771	-132.95
579.974	268.45
580.177	43.18
580.38	-16.21
580.583	51.37
580.787	-12.12
580.99	-96.08
581.193	116.9
581.396	24.75
581.599	14.51
581.802	94.38
582.005	-63.32
582.208	268.45
582.411	-40.79
582.614	168.1
582.817	127.14
583.02	110.76
583.223	235.69
583.426	63.66
583.629	-192.34
583.831	92.33
584.034	-51.03
584.237	30.89
584.44	278.69
584.643	-44.88
584.846	59.56
585.049	374.95
585.251	90.28
585.454	204.97
585.657	-26.45
585.86	186.54
586.062	108.71
586.265	196.78
586.468	94.38
586.671	43.18
586.873	139.43
587.076	229.54
587.279	96.43
587.481	258.21
587.684	338.09
587.886	53.42
588.089	67.75
588.292	34.99
588.494	108.71
588.697	88.23
588.899	303.27
589.102	174.25
589.304	133.29
589.507	-34.64
589.709	41.13
589.912	-18.26
590.114	86.19
590.317	80.04
590.519	43.18
590.722	-14.17
590.924	-18.26
591.126	-98.13
591.329	164.01
591.531	174.25
591.734	-26.45
591.936	125.1
592.138	223.4
592.341	-89.94
592.543	-87.89
592.745	67.75
592.947	20.65
593.15	59.56
593.352	94.38
593.554	-20.31
593.756	-40.79
593.959	-12.12
594.161	108.71
594.363	215.21
594.565	63.66
594.767	75.95
594.969	333.99
595.171	30.89
595.374	137.38
595.576	106.67
595.778	67.75
595.98	-202.58
596.182	217.26
596.384	-38.74
596.586	112.81
596.788	-24.4
596.99	84.14
597.192	-18.26
597.394	8.36
597.596	-46.93
597.798	100.52
598	155.82
598.202	260.26
598.403	73.9
598.605	194.73
598.807	-67.41
599.009	118.95
599.211	-46.93
599.413	-36.69
599.615	75.95
599.816	211.11
600.018	75.95
600.22	116.9
600.422	-10.07
600.623	-12.12
600.825	-71.51
601.027	123.05
601.228	266.41
601.43	272.55
601.632	92.33
601.833	-106.32
602.035	254.12
602.237	65.71
602.438	145.58
602.64	118.95
602.842	106.67
603.043	20.65
603.245	96.43
603.446	129.19
603.648	-65.36
603.849	28.84
604.051	-112.47
604.252	665.76
604.454	6.31
604.655	211.11
604.857	131.24
605.058	147.62
605.259	135.34
605.461	51.37
605.662	77.99
605.864	299.17
606.065	41.13
606.266	311.46
606.468	284.84
606.669	194.73
606.87	366.76
607.072	34.99
607.273	233.64
607.474	297.13
607.675	422.05
607.877	391.33
608.078	166.06
608.279	303.27
608.48	241.83
608.681	362.66
608.883	241.83
609.084	403.62
609.285	381.09
609.486	262.31
609.687	264.36
609.888	311.46
610.089	452.77
610.29	383.14
610.491	338.09
610.692	342.18
610.893	229.54
611.094	589.99
611.295	465.06
611.496	422.05
611.697	1179.8
611.898	397.48
612.099	428.2
612.3	340.13
612.501	321.7
612.702	333.99
612.903	401.57
613.104	370.85
613.305	235.69
613.505	532.64
613.706	344.23
613.907	331.94
614.108	518.31
614.309	272.55
614.509	284.84
614.71	256.17
614.911	428.2
615.112	180.39
615.312	184.49
615.513	112.81
615.714	155.82
615.914	284.84
616.115	100.52
616.316	180.39
616.516	399.52
616.717	192.68
616.918	247.97
617.118	-26.45
617.319	49.32
617.519	213.16
617.72	217.26
617.92	227.5
618.121	463.01
618.321	198.82
618.522	51.37
618.722	321.7
618.923	362.66
619.123	207.02
619.324	288.93
619.524	241.83
619.724	213.16
619.925	100.52
620.125	45.23
620.326	164.01
620.526	250.02
620.726	102.57
620.927	223.4
621.127	125.1
621.327	190.63
621.527	241.83
621.728	303.27
621.928	366.76
622.128	174.25
622.328	94.38
622.529	280.74
622.729	106.67
622.929	297.13
623.129	88.23
623.329	278.69
623.529	299.17
623.73	116.9
623.93	135.34
624.13	37.03
624.33	243.88
624.53	180.39
624.73	127.14
624.93	43.18
625.13	125.1
625.33	299.17
625.53	63.66
625.73	209.06
625.93	327.85
626.13	30.89
626.33	301.22
626.53	313.51
626.73	26.79
626.929	231.59
627.129	211.11
627.329	166.06
627.529	252.07
627.729	63.66
627.929	209.06
628.128	155.82
628.328	73.9
628.528	-18.26
628.728	268.45
628.928	151.72
629.127	262.31
629.327	264.36
629.527	168.1
629.726	135.34
629.926	108.71
630.126	188.58
630.325	282.79
630.525	149.67
630.725	108.71
630.924	127.14
631.124	192.68
631.323	309.41
631.523	186.54
631.722	340.13
631.922	102.57
632.122	260.26
632.321	59.56
632.521	213.16
632.72	342.18
632.919	159.91
633.119	227.5
633.318	295.08
633.518	338.09
633.717	225.45
633.917	409.76
634.116	112.81
634.315	104.62
634.515	161.96
634.714	174.25
634.913	243.88
635.113	77.99
635.312	221.35
635.511	198.82
635.71	209.06
635.91	436.39
636.109	307.37
636.308	250.02
636.507	256.17
636.706	202.92
636.906	245.93
637.105	139.43
637.304	333.99
637.503	102.57
637.702	155.82
637.901	448.68
638.1	264.36
638.299	133.29
638.499	207.02
638.698	168.1
638.897	260.26
639.096	368.81
639.295	223.4
639.494	123.05
639.693	346.28
639.892	176.3
640.09	323.75
640.289	258.21
640.488	256.17
640.687	254.12
640.886	178.34
641.085	229.54
641.284	450.72
641.483	452.77
641.682	186.54
641.88	129.19
642.079	174.25
642.278	350.37
642.477	260.26
642.675	235.69
642.874	260.26
643.073	225.45
643.272	118.95
643.47	317.61
643.669	237.74
643.868	460.96
644.066	329.89
644.265	280.74
644.464	399.52
644.662	204.97
644.861	217.26
645.059	983.2
645.258	188.58
645.457	497.83
645.655	393.38
645.854	309.41
646.052	211.11
646.251	448.68
646.449	422.05
646.648	413.86
646.846	522.4
647.044	405.67
647.243	465.06
647.441	270.5
647.64	157.86
647.838	356.52
648.036	694.43
648.235	301.22
648.433	340.13
648.631	377
648.83	219.3
649.028	530.59
649.226	387.24
649.425	393.38
649.623	553.12
649.821	477.35
650.019	383.14
650.218	432.29
650.416	463.01
650.614	438.44
650.812	518.31
651.01	282.79
651.208	387.24
651.406	409.76
651.605	495.78
651.803	377
652.001	327.85
652.199	528.55
652.397	538.79
652.595	549.03
652.793	796.83
652.991	721.06
653.189	807.07
653.387	663.71
653.585	768.16
653.783	766.11
653.981	903.32
654.179	960.67
654.377	934.04
654.574	1282.2
654.772	983.2
654.97	970.91
655.168	1038.49
655.366	1206.42
655.564	1249.43
655.761	1243.29
655.959	1087.64
656.157	1147.03
656.355	1206.42
656.553	1321.11
656.75	1185.94
656.948	1380.5
657.146	1443.99
657.343	1417.37
657.541	1419.41
657.739	1294.49
657.936	1398.93
658.134	1398.93
658.332	1556.63
658.529	1525.91
658.727	1487
658.924	1507.48
659.122	1716.37
659.319	1607.83
659.517	1800.34
659.714	1532.05
659.912	1849.49
660.109	1831.05
660.307	1794.19
660.504	2017.42
660.702	2164.87
660.899	1972.36
661.097	1955.98
661.294	2056.33
661.491	1855.63
661.689	1994.89
661.886	2017.42
662.083	2046.09
662.281	2273.42
662.478	2230.41
662.675	2283.66
662.873	2492.55
663.07	2525.32
663.267	2377.86
663.464	2635.91
663.662	2371.72
663.859	2693.25
664.056	2631.81
664.253	3000.44
664.45	3164.28
664.647	2814.08
664.845	3084.41
665.042	3084.41
665.239	3362.94
665.436	3264.63
665.633	3238.01
665.83	3428.47
666.027	3481.72
666.224	3704.95
666.421	3508.34
666.618	3549.3
666.815	3418.23
667.012	3911.79
667.209	3713.14
667.406	3905.65
667.603	3768.43
667.8	3766.39
667.997	3657.84
668.194	4003.95
668.39	3958.89
668.587	3969.13
668.784	3932.27
668.981	4116.59
669.178	4061.29
669.375	4270.19
669.571	4147.31
669.768	4225.13
669.965	4126.83
670.162	4063.34
670.358	3965.04
670.555	4061.29
670.752	4206.7
670.948	4192.36
671.145	3975.28
671.342	4085.87
671.538	4202.6
671.735	4182.12
671.932	4124.78
672.128	3887.22
672.325	4071.53
672.521	3858.54
672.718	3698.8
672.914	3776.63
673.111	3655.79
673.307	3813.49
673.504	3821.68
673.7	3557.49
673.897	3651.7
674.093	3598.45
674.29	3524.72
674.486	3410.04
674.682	3422.33
674.879	3285.11
675.075	3475.57
675.272	3395.7
675.468	3387.51
675.664	3344.5
675.861	3270.78
676.057	3362.94
676.253	3258.49
676.449	3301.5
676.646	3215.48
676.842	3489.91
677.038	3170.43
677.234	3051.64
677.43	3104.89
677.627	3309.69
677.823	3403.89
678.019	3160.19
678.215	3084.41
678.411	3123.32
678.607	2986.11
678.803	2840.7
678.999	2955.39
679.196	3043.45
679.392	2896
679.588	2760.83
679.784	2570.37
679.98	2822.27
680.176	2795.65
680.372	2613.38
680.568	2674.82
680.763	2697.35
680.959	2812.03
681.155	2680.96
681.351	2500.74
681.547	2459.78
681.743	2838.66
681.939	2658.43
682.135	2527.36
682.33	2410.63
682.526	2586.76
682.722	2332.81
682.918	2525.32
683.114	2615.43
683.309	2341
683.505	2486.4
683.701	2467.97
683.897	2562.18
684.092	2674.82
684.288	2478.21
684.484	2345.09
684.679	2406.53
684.875	2605.19
685.07	2728.07
685.266	2635.91
685.462	2766.98
685.657	2949.25
685.853	3010.68
686.048	3301.5
686.244	4008.05
686.439	5118.04
686.635	6832.19
686.83	9146.4
687.026	11454.46
687.221	13770.71
687.417	15704
687.612	18165.65
687.807	20576.11
688.003	24051.52
688.198	28208.89
688.394	33013.43
688.589	37041.78
688.784	40767.04
688.98	43163.16
689.175	45997.55
689.37	47590.87
689.565	49829.3
689.761	51041.7
689.956	53390.72
690.151	54216.05
690.346	55264.61
690.542	55811.42
690.737	57046.34
690.932	57279.81
691.127	58240.31
691.322	58443.05
691.517	59983.13
691.713	60488.98
691.908	60448.02
692.103	60407.06
692.298	60880.14
692.493	61072.65
692.688	61453.57
692.883	61058.31
693.078	61445.38
693.273	61572.35
693.468	61426.95
693.663	60892.43
693.858	61486.34
694.053	61467.9
694.248	61613.31
694.443	61050.12
694.637	60423.44
694.832	59753.75
695.027	59172.13
695.222	57587
695.417	55958.87
695.612	52966.79
695.806	51064.22
696.001	48774.59
696.196	47347.16
696.391	44609.03
696.585	41750.06
696.78	37330.55
696.975	32995
697.17	28188.41
697.364	24270.65
697.559	21057.39
697.754	18358.16
697.948	16134.07
698.143	13936.6
698.337	11855.86
698.532	10682.38
698.727	9236.51
698.921	8419.37
699.116	7288.89
699.31	6752.32
699.505	5783.63
699.699	5580.89
699.894	5324.89
700.088	5210.2
700.283	5103.71
700.477	4950.11
700.671	4653.16
700.866	4554.85
701.06	4956.26
701.255	4687.97
701.449	4970.59
701.643	4905.06
701.838	4966.49
702.032	5236.83
702.226	5159
702.421	5523.54
702.615	5195.87
702.809	5548.12
703.003	5515.35
703.198	5593.17
703.392	5982.29
703.586	5857.36
703.78	5902.42
703.974	5650.52
704.169	5982.29
704.363	5939.28
704.557	5916.75
704.751	6035.53
704.945	5945.42
705.139	6334.54
705.333	6275.15
705.527	6049.87
705.721	6352.97
705.915	6316.11
706.109	6539.33
706.303	6514.76
706.497	6666.31
706.691	6703.17
706.885	6778.95
707.079	6676.55
707.273	6875.2
707.467	6942.78
707.661	6856.77
707.855	6975.55
708.048	7264.32
708.242	6961.22
708.436	7401.53
708.63	7385.15
708.824	7403.58
709.018	7446.59
709.211	7454.78
709.405	7569.46
709.599	7501.88
709.792	7579.7
709.986	7516.22
710.18	7548.98
710.374	7626.81
710.567	7559.22
710.761	7626.81
710.954	7680.05
711.148	7841.84
711.342	7438.39
711.535	7589.94
711.729	7751.73
711.922	7655.48
712.116	7659.57
712.309	7379
712.503	7602.23
712.696	7630.9
712.89	7430.2
713.083	7516.22
713.277	7794.74
713.47	7585.85
713.664	7704.63
713.857	7297.08
714.05	7665.72
714.244	7436.35
714.437	7579.7
714.631	7581.75
714.824	7393.34
715.017	7444.54
715.21	7516.22
715.404	7413.82
715.597	7475.26
715.79	7163.97
715.984	7088.19
716.177	6688.84
716.37	6920.26
716.563	6838.34
716.756	6666.31
716.949	6369.35
717.143	6344.78
717.336	6174.8
717.529	5754.96
717.722	5857.36
717.915	5789.78
718.108	5890.13
718.301	5623.89
718.494	5431.38
718.687	5208.16
718.88	5140.57
719.073	4933.73
719.266	4835.42
719.459	4966.49
719.652	4495.46
719.845	4780.13
720.038	4405.35
720.231	4196.46
720.424	4520.04
720.617	4218.99
720.809	4208.75
721.002	3991.66
721.195	4008.05
721.388	4120.68
721.581	3676.27
721.774	3733.62
721.966	3643.51
722.159	3717.23
722.352	3446.9
722.544	3516.53
722.737	3303.54
722.93	3606.64
723.123	3250.3
723.315	3168.38
723.508	3127.42
723.701	3018.88
723.893	3074.17
724.086	2891.9
724.278	2908.29
724.471	2836.61
724.663	2719.87
724.856	2717.83
725.048	2586.76
725.241	2715.78
725.433	2463.88
725.626	2693.25
725.818	2627.71
726.011	2400.39
726.203	2316.42
726.396	2377.86
726.588	2693.25
726.78	2123.91
726.973	2132.11
727.165	2445.45
727.358	2267.27
727.55	2068.62
727.742	2209.93
727.934	2113.67
728.127	2164.87
728.319	2183.31
728.511	2031.76
728.704	2062.48
728.896	2029.71
729.088	1906.83
729.28	2056.33
729.472	2058.38
729.664	1730.7
729.857	1921.17
730.049	1992.84
730.241	1882.25
730.433	1976.46
730.625	1685.65
730.817	1620.11
731.009	1583.25
731.201	1847.44
731.393	1626.26
731.585	1532.05
731.777	1468.56
731.969	1493.14
732.161	1460.37
732.353	1501.33
732.545	1456.28
732.737	1310.87
732.929	1319.06
733.121	1384.6
733.313	1149.08
733.504	1366.17
733.696	1226.9
733.888	1196.18
734.08	1300.63
734.272	1292.44
734.463	1175.7
734.655	1126.55
734.847	1167.51
735.039	1204.38
735.23	1058.97
735.422	936.09
735.614	1003.68
735.805	1196.18
735.997	960.67
736.189	874.65
736.38	1026.2
736.572	987.29
736.764	858.27
736.955	817.31
737.147	743.58
737.338	772.25
737.53	1058.97
737.721	874.65
737.913	841.89
738.104	919.71
738.296	817.31
738.487	626.85
738.679	727.2
738.87	833.69
739.061	659.62
739.253	823.45
739.444	594.08
739.636	807.07
739.827	684.19
740.018	471.2
740.21	706.72
740.401	809.12
740.592	608.42
740.783	528.55
740.975	671.9
741.166	458.92
741.357	569.51
741.548	712.86
741.74	526.5
741.931	612.51
742.122	747.68
742.313	815.26
742.504	583.84
742.695	708.77
742.886	645.28
743.077	694.43
743.269	577.7
743.46	544.93
743.651	460.96
743.842	598.18
744.033	483.49
744.224	473.25
744.415	506.02
744.606	665.76
744.797	475.3
744.987	510.11
745.178	641.18
745.369	587.94
745.56	403.62
745.751	581.79
745.942	506.02
746.133	676
746.324	549.03
746.514	350.37
746.705	469.16
746.896	450.72
747.087	319.65
747.277	417.96
747.468	278.69
747.659	532.64
747.85	491.68
748.04	542.88
748.231	395.43
748.422	434.34
748.612	737.44
748.803	569.51
748.993	407.72
749.184	647.33
749.375	501.92
749.565	413.86
749.756	329.89
749.946	473.25
750.137	282.79
750.327	463.01
750.518	215.21
750.708	342.18
750.899	317.61
751.089	405.67
751.279	417.96
751.47	340.13
751.66	219.3
751.851	346.28
752.041	336.04
752.231	200.87
752.422	399.52
752.612	446.63
752.802	495.78
752.993	346.28
753.183	153.77
753.373	377
753.563	495.78
753.754	356.52
753.944	243.88
754.134	258.21
754.324	436.39
754.514	440.48
754.704	534.69
754.895	94.38
755.085	114.86
755.275	295.08
755.465	286.89
755.655	200.87
755.845	325.8
756.035	321.7
756.225	243.88
756.415	82.09
756.605	188.58
756.795	170.15
756.985	266.41
757.175	297.13
757.365	256.17
757.555	350.37
757.745	180.39
757.934	372.9
758.124	305.32
758.314	104.62
758.504	159.91
758.694	243.88
758.884	202.92
759.073	164.01
759.263	305.32
759.453	149.67
759.643	55.47
759.832	200.87
760.022	313.51
760.212	295.08
760.401	319.65
760.591	166.06
760.781	223.4
760.97	194.73
761.16	288.93
761.35	153.77
761.539	28.84
761.729	153.77
761.918	166.06
762.108	82.09
762.297	155.82
762.487	174.25
762.676	227.5
762.866	303.27
763.055	194.73
763.245	243.88
763.434	-38.74
763.624	188.58
763.813	166.06
764.002	262.31
764.192	258.21
764.381	262.31
764.57	190.63
764.76	80.04
764.949	161.96
765.138	166.06
765.328	225.45
765.517	336.04
765.706	272.55
765.895	92.33
766.085	37.03
766.274	96.43
766.463	69.8
766.652	63.66
766.841	141.48
767.03	127.14
767.219	159.91
767.409	18.6
767.598	-12.12
767.787	170.15
767.976	116.9
768.165	75.95
768.354	155.82
768.543	182.44
768.732	856.22
768.921	116.9
769.11	98.47
769.299	164.01
769.488	200.87
769.677	137.38
769.865	12.46
770.054	116.9
770.243	108.71
770.432	227.5
770.621	-12.12
770.81	135.34
770.998	-53.08
771.187	96.43
771.376	-38.74
771.565	303.27
771.754	-75.6
771.942	-3.93
772.131	77.99
772.32	30.89
772.508	51.37
772.697	178.34
772.886	-44.88
773.074	32.94
773.263	778.4
773.451	80.04
773.64	-5.97
773.829	141.48
774.017	-5.97
774.206	153.77
774.394	106.67
774.583	204.97
774.771	20.65
774.96	-100.18
775.148	-28.5
775.337	63.66
775.525	233.64
775.713	112.81
775.902	8.36
776.09	41.13
776.279	-98.13
776.467	-128.85
776.655	28.84
776.844	266.41
777.032	-3.93
777.22	336.04
777.408	-18.26
777.597	331.94
777.785	-122.71
777.973	-114.52
778.161	-3.93
778.35	53.42
778.538	-100.18
778.726	-30.55
778.914	-30.55
779.102	231.59
779.29	10.41
779.478	-48.98
779.666	-196.43
779.854	190.63
780.043	-53.08
780.231	63.66
780.419	-53.08
780.607	12.46
780.795	4.27
780.983	139.43
781.17	-46.93
781.358	188.58
781.546	30.89
781.734	131.24
781.922	32.94
782.11	-14.17
782.298	22.7
782.486	-36.69
782.674	-22.36
782.861	24.75
783.049	-173.91
783.237	174.25
783.425	80.04
783.612	16.55
783.8	-77.65
783.988	-42.84
784.176	-14.17
784.363	-1.88
784.551	-34.64
784.739	75.95
784.926	-59.22
785.114	26.79
785.301	100.52
785.489	16.55
785.677	32.94
785.864	100.52
786.052	-14.17
786.239	96.43
786.427	80.04
786.614	39.08
786.802	-83.8
786.989	-18.26
787.177	43.18
787.364	59.56
787.551	135.34
787.739	96.43
787.926	-40.79
788.114	16.55
788.301	-186.19
788.488	-120.66
788.676	-71.51
788.863	14.51
789.05	-51.03
789.238	-118.61
789.425	0.17
789.612	168.1
789.799	8.36
789.986	-104.28
790.174	-5.97
790.361	6.31
790.548	45.23
790.735	22.7
790.922	-32.6
791.109	155.82
791.296	268.45
791.484	190.63
791.671	-63.32
791.858	57.51
792.045	67.75
792.232	45.23
792.419	43.18
792.606	100.52
792.793	192.68
792.98	-32.6
793.167	20.65
793.353	139.43
793.54	84.14
793.727	114.86
793.914	-153.43
794.101	-40.79
794.288	-194.39
794.475	-198.48
794.662	26.79
794.848	-173.91
795.035	67.75
795.222	-16.21
795.409	-100.18
795.595	-77.65
795.782	-221.01
795.969	112.81
796.155	49.32
796.342	92.33
796.529	108.71
796.715	217.26
796.902	161.96
797.089	311.46
797.275	4.27
797.462	518.31
797.648	-128.85
797.835	4.27
798.021	71.85
798.208	39.08
798.394	-22.36
798.581	-65.36
798.767	-18.26
798.954	32.94
799.14	-91.99
799.327	-83.8
799.513	168.1
799.699	88.23
799.886	127.14
800.072	90.28
800.258	47.27
800.445	69.8
800.631	-57.17
800.817	-112.47
801.004	14.51
801.19	-165.71
801.376	-151.38
801.562	24.75
801.749	63.66
801.935	-24.4
802.121	39.08
802.307	-46.93
802.493	116.9
802.679	24.75
802.866	-69.46
803.052	-75.6
803.238	-100.18
803.424	10.41
803.61	-8.02
803.796	-91.99
803.982	147.62
804.168	-225.11
804.354	-8.02
804.54	-26.45
804.726	86.19
804.912	-98.13
805.098	-26.45
805.283	80.04
805.469	137.38
805.655	20.65
805.841	20.65
806.027	45.23
806.213	100.52
806.399	151.72
806.584	-71.51
806.77	155.82
806.956	-75.6
807.142	209.06
807.327	108.71
807.513	211.11
807.699	-71.51
807.884	39.08
808.07	53.42
808.256	-5.97
808.441	-79.7
808.627	34.99
808.813	-100.18
808.998	-8.02
809.184	12.46
809.369	37.03
809.555	16.55
809.74	26.79
809.926	75.95
810.111	-32.6
810.297	-106.32
810.482	41.13
810.668	-96.08
810.853	20.65
811.039	-42.84
811.224	-12.12
811.409	84.14
811.595	-137.04
811.78	98.47
811.965	94.38
812.151	26.79
812.336	65.71
812.521	-57.17
812.706	55.47
812.892	-96.08
813.077	94.38
813.262	-69.46
813.447	75.95
813.633	-8.02
813.818	16.55
814.003	-67.41
814.188	32.94
814.373	-51.03
814.558	172.2
814.743	-73.56
814.928	-208.72
815.113	-16.21
815.298	-10.07
815.483	-108.37
815.668	10.41
815.853	215.21
816.038	-77.65
816.223	-112.47
816.408	194.73
816.593	-126.8
816.778	-40.79
816.963	32.94
817.148	-8.02
817.333	-272.21
817.518	-30.55
817.702	157.86
817.887	14.51
818.072	26.79
818.257	106.67
818.442	155.82
818.626	137.38
818.811	168.1
818.996	137.38
819.18	-46.93
819.365	88.23
819.55	53.42
819.734	-89.94
819.919	100.52
820.104	100.52
820.288	32.94
820.473	16.55
820.657	-20.31
820.842	-94.04
821.026	104.62
821.211	4.27
821.396	16.55
821.58	-67.41
821.764	-46.93
821.949	59.56
822.133	41.13
822.318	280.74
822.502	18.6
822.687	-98.13
822.871	-20.31
823.055	-24.4
823.24	-69.46
823.424	-51.03
823.608	-69.46
823.793	63.66
823.977	131.24
824.161	-46.93
824.345	-151.38
824.53	67.75
824.714	127.14
824.898	-75.6
825.082	-65.36
825.266	-18.26
825.45	-178
825.635	67.75
825.819	-69.46
826.003	-149.33
826.187	-81.75
826.371	14.51
826.555	-137.04
826.739	-128.85
826.923	-161.62
827.107	-48.98
827.291	147.62
827.475	8.36
827.659	34.99
827.843	-75.6
828.027	-204.63
828.211	90.28
828.395	34.99
828.578	-147.28
828.762	-112.47
828.946	26.79
829.13	-8.02
829.314	-94.04
829.498	-104.28
829.681	20.65
829.865	51.37
830.049	2.22
830.233	-53.08
830.416	-112.47
830.6	-22.36
830.784	51.37
830.967	-59.22
831.151	6.31
831.335	-30.55
831.518	-81.75
831.702	-128.85
831.885	-20.31
832.069	-155.47
832.252	-24.4
832.436	-14.17
832.619	80.04
832.803	-46.93
832.986	-14.17
833.17	-10.07
833.353	-42.84
833.537	-104.28
833.72	-110.42
833.904	241.83
834.087	92.33
834.27	14.51
834.454	-87.89
834.637	-48.98
834.82	-143.19
835.004	-8.02
835.187	180.39
835.37	-120.66
835.553	71.85
835.737	-149.33
835.92	-91.99
836.103	-73.56
836.286	102.57
836.469	-106.32
836.653	-157.52
836.836	-14.17
837.019	57.51
837.202	-63.32
837.385	-38.74
837.568	190.63
837.751	-12.12
837.934	-65.36
838.117	-75.6
838.3	-8.02
838.483	-65.36
838.666	149.67
838.849	-38.74
839.032	149.67
839.215	-42.84
839.398	-55.12
839.581	123.05
839.764	-157.52
839.947	-126.8
840.129	-83.8
840.312	2.22
840.495	-91.99
840.678	-235.35
840.861	-63.32
841.043	-182.1
841.226	-28.5
841.409	-167.76
841.592	94.38
841.774	-266.07
841.957	6.31
842.14	-124.76
842.322	-22.36
842.505	102.57
842.687	-132.95
842.87	118.95
843.053	20.65
843.235	-130.9
843.418	-112.47
843.6	-141.14
843.783	-173.91
843.965	229.54
844.148	-126.8
844.33	-114.52
844.513	-36.69
844.695	-38.74
844.878	-63.32
845.06	-44.88
845.242	96.43
845.425	-61.27
845.607	-87.89
845.789	53.42
845.972	-20.31
846.154	135.34
846.336	34.99
846.519	80.04
846.701	-106.32
846.883	2.22
847.065	-139.09
847.247	-77.65
847.43	-16.21
847.612	-10.07
847.794	-106.32
847.976	32.94
848.158	-128.85
848.34	8.36
848.522	-51.03
848.704	39.08
848.886	10.41
849.069	20.65
849.251	71.85
849.433	-14.17
849.615	174.25
849.797	-157.52
849.978	82.09
850.16	123.05
850.342	-61.27
850.524	-20.31
850.706	-155.47
850.888	-65.36
851.07	-73.56
851.252	-34.64
851.434	-1.88
851.615	22.7
851.797	53.42
851.979	-18.26
852.161	51.37
852.342	-85.84
852.524	-22.36
852.706	-81.75
852.887	-169.81
853.069	-10.07
853.251	-30.55
853.432	2.22
853.614	-14.17
853.796	157.86
853.977	-42.84
854.159	0.17
854.34	108.71
854.522	108.71
854.703	-38.74
854.885	-8.02
855.066	-22.36
855.248	-48.98
855.429	161.96
855.611	22.7
855.792	-139.09
855.974	-143.19
856.155	123.05
856.336	-208.72
856.518	108.71
856.699	-81.75
856.881	-128.85
857.062	-14.17
857.243	-63.32
857.424	139.43
857.606	47.27
857.787	12.46
857.968	-10.07
858.149	133.29
858.331	170.15
858.512	-85.84
858.693	37.03
858.874	37.03
859.055	-112.47
859.236	-149.33
859.417	-22.36
859.598	92.33
859.779	45.23
859.961	-100.18
860.142	-126.8
860.323	2.22
860.504	116.9
860.685	-16.21
860.865	266.41
861.046	10.41
861.227	43.18
861.408	-8.02
861.589	-59.22
861.77	-24.4
861.951	-104.28
862.132	51.37
862.313	-61.27
862.493	-30.55
862.674	-28.5
862.855	-96.08
863.036	-110.42
863.216	-120.66
863.397	-51.03
863.578	-137.04
863.759	426.15
863.939	30.89
864.12	131.24
864.301	59.56
864.481	45.23
864.662	-1.88
864.842	-73.56
865.023	-8.02
865.204	-61.27
865.384	84.14
865.565	133.29
865.745	-36.69
865.926	-91.99
866.106	-173.91
866.287	-42.84
866.467	37.03
866.648	-81.75
866.828	-137.04
867.008	-42.84
867.189	57.51
867.369	-57.17
867.549	121
867.73	-104.28
867.91	75.95
868.09	8.36
868.271	-22.36
868.451	-145.24
868.631	159.91
868.811	26.79
868.992	-151.38
869.172	-204.63
869.352	-48.98
869.532	-51.03
869.712	-20.31
869.892	51.37
870.073	135.34
870.253	-38.74
870.433	-116.56
870.613	-14.17
870.793	57.51
870.973	-1.88
871.153	-16.21
871.333	45.23
871.513	75.95
871.693	-20.31
871.873	34.99
872.053	12.46
872.233	12.46
872.412	-42.84
872.592	110.76
872.772	43.18
872.952	-85.84
873.132	-165.71
873.312	-116.56
873.492	51.37
873.671	-65.36
873.851	-69.46
874.031	41.13
874.211	-221.01
874.39	-77.65
874.57	39.08
874.75	-65.36
874.929	69.8
875.109	-147.28
875.289	39.08
875.468	0.17
875.648	80.04
875.827	-91.99
876.007	30.89
876.186	-5.97
876.366	86.19
876.545	-12.12
876.725	-16.21
876.904	-51.03
877.084	-73.56
877.263	-159.57
877.443	-53.08
877.622	151.72
877.802	-81.75
877.981	-40.79
878.16	-94.04
878.34	-1.88
878.519	-175.95
878.698	49.32
878.878	-94.04
879.057	-137.04
879.236	-202.58
879.415	-118.61
879.595	98.47
879.774	10.41
879.953	-77.65
880.132	14.51
880.311	229.54
880.49	-8.02
880.67	-124.76
880.849	-194.39
881.028	45.23
881.207	250.02
881.386	-18.26
881.565	100.52
881.744	-241.49
881.923	149.67
882.102	-89.94
882.281	10.41
882.46	108.71
882.639	966.81
882.818	51.37
882.997	-65.36
883.176	-214.87
883.354	-20.31
883.533	172.2
883.712	37.03
883.891	-137.04
884.07	18.6
884.249	-108.37
884.427	41.13
884.606	-42.84
884.785	-5.97
884.964	2.22
885.142	123.05
885.321	-89.94
885.5	182.44
885.678	-73.56
885.857	-75.6
886.036	182.44
886.214	94.38
886.393	123.05
886.571	-87.89
886.75	123.05
886.928	47.27
887.107	104.62
887.285	-96.08
887.464	43.18
887.642	43.18
887.821	2.22
887.999	192.68
888.178	18.6
888.356	106.67
888.534	104.62
888.713	-81.75
888.891	-28.5
889.07	-137.04
889.248	-83.8
889.426	-143.19
889.604	-79.7
889.783	14.51
889.961	30.89
890.139	-55.12
890.317	-100.18
890.496	288.93
890.674	-104.28
890.852	-10.07
891.03	55.47
891.208	-10.07
891.386	202.92
891.564	-30.55
891.742	-10.07
891.921	-118.61
892.099	-65.36
892.277	65.71
892.455	-147.28
892.633	-94.04
892.811	86.19
892.989	-22.36
893.167	0.17
893.344	0.17
893.522	-1.88
893.7	-237.39
893.878	116.9
894.056	100.52
894.234	16.55
894.412	-178
894.589	-46.93
894.767	-167.76
894.945	-38.74
895.123	-67.41
895.301	-85.84
895.478	22.7
895.656	43.18
895.834	-8.02
896.011	-81.75
896.189	-124.76
896.367	80.04
896.544	-167.76
896.722	-24.4
896.899	135.34
897.077	-69.46
897.255	16.55
897.432	-104.28
897.61	-67.41
897.787	-198.48
897.965	106.67
898.142	-38.74
898.32	-53.08
898.497	49.32
898.674	-77.65
898.852	39.08
899.029	24.75
899.207	-139.09
899.384	127.14
899.561	75.95
899.739	-48.98
899.916	-149.33
900.093	59.56
900.27	-20.31
900.448	12.46
900.625	125.1
900.802	-38.74
900.979	-143.19
901.156	86.19
901.334	125.1
901.511	-59.22
901.688	293.03
901.865	-124.76
902.042	94.38
902.219	57.51
902.396	106.67
902.573	43.18
902.75	-182.1
902.927	135.34
903.104	-106.32
903.281	-184.15
903.458	10.41
903.635	-100.18
903.812	-141.14
903.989	43.18
904.166	88.23
904.343	-61.27
904.52	-28.5
904.696	-126.8
904.873	-104.28
905.05	-114.52
905.227	-198.48
905.404	0.17
905.58	-10.07
905.757	-192.34
905.934	-157.52
906.111	-44.88
906.287	-141.14
906.464	-155.47
906.641	-53.08
906.817	-204.63
906.994	-167.76
907.17	-128.85
907.347	104.62
907.524	-67.41
907.7	-79.7
907.877	194.73
908.053	-167.76
908.23	-34.64
908.406	59.56
908.583	-106.32
908.759	-132.95
908.935	67.75
909.112	-114.52
909.288	47.27
909.465	213.16
909.641	73.9
909.817	-79.7
909.994	82.09
910.17	61.61
910.346	-40.79
910.523	-42.84
910.699	-143.19
910.875	-38.74
911.051	67.75
911.228	-63.32
911.404	-67.41
911.58	600.23
911.756	-149.33
911.932	-96.08
912.108	-26.45
912.284	84.14
912.46	-77.65
912.637	-67.41
912.813	-104.28
912.989	170.15
913.165	-46.93
913.341	-149.33
913.517	-63.32
913.693	-71.51
913.869	16.55
914.044	-153.43
914.22	-202.58
914.396	-40.79
914.572	-214.87
914.748	-116.56
914.924	-202.58
915.1	-96.08
915.276	55.47
915.451	-3.93
915.627	20.65
915.803	-102.23
915.979	-184.15
916.154	-75.6
916.33	-28.5
916.506	104.62
916.681	280.74
916.857	63.66
917.033	-155.47
917.208	-42.84
917.384	49.32
917.56	41.13
917.735	-79.7
917.911	-157.52
918.086	73.9
918.262	-210.77
918.437	-153.43
918.613	-288.59
918.788	-268.11
918.964	164.01
919.139	-253.78
919.314	51.37
919.49	45.23
919.665	-55.12
919.841	8.36
920.016	-63.32
920.191	137.38
920.367	-59.22
920.542	63.66
920.717	-91.99
920.892	-130.9
921.068	-153.43
921.243	-65.36
921.418	-67.41
921.593	176.3
921.769	118.95
921.944	55.47
922.119	-42.84
922.294	-20.31
922.469	-167.76
922.644	137.38
922.819	6.31
922.994	137.38
923.169	-1.88
923.344	-24.4
923.519	-171.86
923.694	10.41
923.869	118.95
924.044	55.47
924.219	12.46
924.394	26.79
924.569	118.95
924.744	-169.81
924.919	34.99
925.094	18.6
925.268	-100.18
925.443	-132.95
925.618	-32.6
925.793	98.47
925.968	-55.12
926.142	-42.84
926.317	-3.93
926.492	39.08
926.666	67.75
926.841	10.41
927.016	61.61
927.19	-71.51
927.365	-141.14
927.54	53.42
927.714	-71.51
927.889	37.03
928.063	-63.32
928.238	80.04
928.412	0.17
928.587	8.36
928.761	-65.36
928.936	-243.54
929.11	0.17
929.285	94.38
929.459	-165.71
929.634	-69.46
929.808	-157.52
929.982	-165.71
930.157	37.03
930.331	-161.62
930.505	104.62
930.68	59.56
930.854	-32.6
931.028	92.33
931.202	102.57
931.377	-126.8
931.551	63.66
931.725	-116.56
931.899	-85.84
932.073	200.87
932.247	172.2
932.422	-167.76
932.596	-30.55
932.77	-186.19
932.944	143.53
933.118	-34.64
933.292	-243.54
933.466	-89.94
933.64	-51.03
933.814	-44.88
933.988	41.13
934.162	-10.07
934.336	-8.02
934.51	-122.71
934.683	0.17
934.857	14.51
935.031	266.41
935.205	-22.36
935.379	-42.84
935.553	24.75
935.726	-8.02
935.9	-1.88
936.074	-34.64
936.248	-24.4
936.421	24.75
936.595	-57.17
936.769	-182.1
936.943	-8.02
937.116	-268.11
937.29	-87.89
937.463	262.31
937.637	80.04
937.811	-104.28
937.984	-8.02
938.158	-22.36
938.331	-120.66
938.505	-24.4
938.678	135.34
938.852	55.47
939.025	20.65
939.199	-89.94
939.372	94.38
939.545	-46.93
939.719	-69.46
939.892	41.13
940.066	34.99
940.239	106.67
940.412	53.42
940.586	-192.34
940.759	-91.99
940.932	65.71
941.105	-198.48
941.279	-124.76
941.452	-20.31
941.625	-57.17
941.798	94.38
941.971	125.1
942.144	-57.17
942.318	-3.93
942.491	129.19
942.664	-112.47
942.837	-155.47
943.01	-85.84
943.183	-16.21
943.356	149.67
943.529	-16.21
943.702	12.46
943.875	-120.66
944.048	65.71
944.221	-67.41
944.394	-91.99
944.567	116.9
944.74	143.53
944.912	-24.4
945.085	-63.32
945.258	-5.97
945.431	-132.95
945.604	41.13
945.776	575.65
945.949	69.8
946.122	20.65
946.295	-5.97
946.467	-12.12
946.64	-28.5
946.813	-40.79
946.985	-165.71
947.158	-71.51
947.331	75.95
947.503	-65.36
947.676	-98.13
947.848	65.71
948.021	16.55
948.194	-22.36
948.366	-196.43
948.539	-67.41
948.711	73.9
948.883	14.51
949.056	-98.13
949.228	-227.15
949.401	-100.18
949.573	-89.94
949.746	34.99
949.918	20.65
950.09	41.13
950.263	-137.04
950.435	-20.31
950.607	-20.31
950.779	241.83
950.952	-110.42
951.124	-218.96
951.296	43.18
951.468	-5.97
951.64	161.96
951.813	-163.67
951.985	-16.21
952.157	24.75
952.329	51.37
952.501	-67.41
952.673	-34.64
952.845	-132.95
953.017	-24.4
953.189	-30.55
953.361	90.28
953.533	114.86
953.705	-108.37
953.877	-40.79
954.049	-96.08
954.221	-155.47
954.393	-61.27
954.565	-48.98
954.737	2.22
954.909	-63.32
955.08	174.25
955.252	55.47
955.424	141.48
955.596	217.26
955.768	-71.51
955.939	0.17
956.111	180.39
956.283	90.28
956.454	32.94
956.626	86.19
956.798	139.43
956.969	45.23
957.141	-57.17
957.313	-32.6
957.484	-145.24
957.656	-61.27
957.827	88.23
957.999	61.61
958.17	75.95
958.342	108.71
958.513	-83.8
958.685	-139.09
958.856	-51.03
959.028	14.51
959.199	8.36
959.37	92.33
959.542	-22.36
959.713	-112.47
959.884	145.58
960.056	0.17
960.227	28.84
960.398	252.07
960.57	-124.76
960.741	43.18
960.912	16.55
961.083	63.66
961.254	-157.52
961.426	30.89
961.597	71.85
961.768	22.7
961.939	37.03
962.11	-36.69
962.281	86.19
962.452	-46.93
962.623	321.7
962.794	-102.23
962.965	-38.74
963.136	157.86
963.307	-132.95
963.478	39.08
963.649	16.55
963.82	100.52
963.991	-104.28
964.162	-182.1
964.333	-106.32
964.504	10.41
964.675	202.92
964.845	196.78
965.016	4.27
965.187	-3.93
965.358	0.17
965.529	231.59
965.699	37.03
965.87	168.1
966.041	-38.74
966.211	14.51
966.382	125.1
966.553	12.46
966.723	61.61
966.894	-239.44
967.065	-116.56
967.235	61.61
967.406	18.6
967.576	-61.27
967.747	-3.93
967.917	71.85
968.088	71.85
968.258	-116.56
968.429	-10.07
968.599	63.66
968.769	55.47
968.94	88.23
969.11	28.84
969.281	-16.21
969.451	63.66
969.621	-10.07
969.792	-94.04
969.962	170.15
970.132	30.89
970.302	116.9
970.473	28.84
970.643	-8.02
970.813	-10.07
970.983	-94.04
971.153	211.11
971.324	22.7
971.494	2.22
971.664	-87.89
971.834	-40.79
972.004	342.18
972.174	-104.28
972.344	96.43
972.514	-151.38
972.684	133.29
972.854	-26.45
973.024	82.09
973.194	-96.08
973.364	-10.07
973.534	-143.19
973.704	100.52
973.874	-67.41
974.043	-63.32
974.213	14.51
974.383	2.22
974.553	-55.12
974.723	14.51
974.893	43.18
975.062	18.6
975.232	2.22
975.402	-75.6
975.571	-30.55
975.741	2.22
975.911	57.51
976.08	67.75
976.25	-48.98
976.42	-8.02
976.589	149.67
976.759	-126.8
976.928	-128.85
977.098	14.51
977.267	-147.28
977.437	-83.8
977.606	-14.17
977.776	32.94
977.945	82.09
978.115	59.56
978.284	-214.87
978.454	-36.69
978.623	-102.23
978.792	-28.5
978.962	0.17
979.131	137.38
979.3	-208.72
979.47	-5.97
979.639	-63.32
979.808	-42.84
979.977	344.23
980.147	-132.95
980.316	-161.62
980.485	159.91
980.654	-110.42
980.823	170.15
980.992	-104.28
981.162	73.9
981.331	75.95
981.5	-3.93
981.669	-18.26
981.838	-65.36
982.007	0.17
982.176	186.54
982.345	-30.55
982.514	-73.56
982.683	77.99
982.852	-24.4
983.021	-96.08
983.19	73.9
983.358	-26.45
983.527	-73.56
983.696	-83.8
983.865	75.95
984.034	14.51
984.203	176.3
984.371	-18.26
984.54	-87.89
984.709	538.79
984.878	-85.84
985.046	-69.46
985.215	10.41
985.384	-157.52
985.552	59.56
985.721	4.27
985.889	-16.21
986.058	-145.24
986.227	-48.98
986.395	-139.09
986.564	-104.28
986.732	-87.89
986.901	59.56
987.069	-14.17
987.238	235.69
987.406	-38.74
987.575	-24.4
987.743	151.72
987.911	43.18
988.08	80.04
988.248	-36.69
988.416	-98.13
988.585	34.99
988.753	-79.7
988.921	73.9
989.09	-32.6
989.258	178.34
989.426	67.75
989.594	51.37
989.763	28.84
989.931	-89.94
990.099	71.85
990.267	14.51
990.435	-126.8
990.603	-3.93
990.771	-8.02
990.939	-128.85
991.107	106.67
991.275	-1.88
991.443	18.6
991.611	-63.32
991.779	186.54
991.947	59.56
992.115	-167.76
992.283	153.77
992.451	147.62
992.619	254.12
992.787	63.66
992.955	-139.09
993.123	-16.21
993.29	47.27
993.458	34.99
993.626	-22.36
993.794	-149.33
993.962	-132.95
994.129	-40.79
994.297	174.25
994.465	-63.32
994.632	-26.45
994.8	188.58
994.968	241.83
995.135	53.42
995.303	22.7
995.47	-30.55
995.638	159.91
995.806	51.37
995.973	55.47
996.141	20.65
996.308	-18.26
996.476	28.84
996.643	-24.4
996.81	131.24
996.978	118.95
997.145	94.38
997.313	88.23
997.48	-167.76
997.647	393.38
997.815	231.59
997.982	-48.98
998.149	133.29
998.317	0.17
998.484	-69.46
998.651	-106.32
998.818	-5.97
998.986	-210.77
999.153	94.38
999.32	-151.38
999.487	-175.95
999.654	-194.39
999.821	-1.88
999.988	18.6
1000.155	14.51
1000.323	-184.15
1000.49	65.71
1000.657	26.79
1000.824	106.67
1000.991	313.51
1001.158	-40.79
1001.324	-104.28
1001.491	129.19
1001.658	114.86
1001.825	92.33
1001.992	209.06
1002.159	-5.97
1002.326	-75.6
1002.493	108.71
1002.659	-28.5
1002.826	-75.6
1002.993	-178
1003.16	194.73
1003.326	57.51
1003.493	-3.93
1003.66	-32.6
1003.827	16.55
1003.993	-102.23
1004.16	8.36
1004.326	139.43
1004.493	147.62
1004.66	-5.97
1004.826	75.95
1004.993	192.68
1005.159	102.57
1005.326	67.75
1005.492	-112.47
1005.659	47.27
1005.825	-128.85
1005.992	151.72
1006.158	10.41
1006.325	131.24
1006.491	-112.47
1006.657	-200.53
1006.824	61.61
1006.99	63.66
1007.156	92.33
1007.323	-22.36
1007.489	26.79
1007.655	-153.43
1007.821	18.6
1007.988	-3.93
1008.154	2.22
1008.32	67.75
1008.486	30.89
1008.652	-34.64
1008.818	26.79
1008.985	-63.32
1009.151	-83.8
1009.317	61.61
1009.483	-192.34
1009.649	-98.13
1009.815	84.14
1009.981	-132.95
1010.147	-18.26
1010.313	141.48
1010.479	-38.74
1010.645	-63.32
1010.811	41.13
1010.976	75.95
1011.142	-79.7
1011.308	-130.9
1011.474	14.51
1011.64	-89.94
1011.806	24.75
1011.971	37.03
1012.137	-143.19
1012.303	39.08
1012.469	61.61
1012.634	-34.64
1012.8	-48.98
1012.966	37.03
1013.131	-91.99
1013.297	147.62
1013.463	-18.26
1013.628	65.71
1013.794	149.67
1013.959	-94.04
1014.125	-132.95
1014.291	-51.03
1014.456	30.89
1014.622	-161.62
1014.787	-44.88
1014.952	51.37
1015.118	18.6
1015.283	71.85
1015.449	139.43
1015.614	121
1015.779	-104.28
1015.945	-75.6
1016.11	6.31
1016.275	-8.02
1016.441	57.51
1016.606	-59.22
1016.771	-102.23
1016.937	6.31
1017.102	-34.64
1017.267	61.61
1017.432	-28.5
1017.597	-173.91
1017.762	131.24
1017.928	18.6
1018.093	-165.71
1018.258	-104.28
1018.423	112.81
1018.588	-81.75
1018.753	-83.8
1018.918	121
1019.083	88.23
1019.248	6.31
1019.413	0.17
1019.578	182.44
1019.743	153.77
1019.908	22.7
1020.073	112.81
1020.237	-118.61
1020.402	-106.32
1020.567	-38.74
1020.732	2.22
1020.897	166.06
1021.062	184.49
1021.226	-55.12
1021.391	254.12
1021.556	-120.66
1021.72	69.8
1021.885	4.27
1022.05	118.95
1022.214	-194.39
1022.379	121
1022.544	-61.27
1022.708	71.85
1022.873	188.58
1023.037	-94.04
1023.202	86.19
1023.366	102.57
1023.531	-145.24
1023.695	-165.71
1023.86	-55.12
1024.024	-100.18
1024.189	239.78
1024.353	149.67
1024.518	26.79
1024.682	53.42
1024.846	45.23
1025.011	-18.26
1025.175	-155.47
1025.339	-34.64
1025.504	90.28
1025.668	69.8
1025.832	110.76
1025.996	37.03
1026.161	-8.02
1026.325	-126.8
1026.489	6.31
1026.653	41.13
1026.817	141.48
1026.981	63.66
1027.145	174.25
1027.309	-8.02
1027.474	61.61
1027.638	-42.84
1027.802	69.8
1027.966	-12.12
1028.13	102.57
1028.294	6.31
1028.458	104.62
1028.621	80.04
1028.785	69.8
1028.949	-83.8
1029.113	153.77
1029.277	57.51
1029.441	262.31
1029.605	71.85
1029.768	-130.9
1029.932	14.51
1030.096	-48.98
1030.26	106.67
1030.423	-155.47
1030.587	-94.04
1030.751	-108.37
1030.915	290.98
1031.078	84.14
1031.242	-110.42
1031.405	57.51
1031.569	-18.26
1031.733	129.19
1031.896	-18.26
1032.06	-198.48
1032.223	-1.88
1032.387	92.33
1032.55	-20.31
1032.714	116.9
1032.877	4.27
1033.041	108.71
1033.204	-245.59
1033.367	-3.93
1033.531	-59.22
1033.694	-79.7
1033.858	26.79
1034.021	229.54
1034.184	116.9
1034.347	-38.74
1034.511	57.51
1034.674	-91.99
1034.837	77.99
1035	-153.43
1035.164	82.09
1035.327	-22.36
1035.49	182.44
1035.653	88.23
1035.816	41.13
1035.979	65.71
1036.142	282.79
1036.305	-38.74
1036.468	-44.88
1036.631	102.57
1036.794	82.09
1036.957	133.29
1037.12	-108.37
1037.283	96.43
1037.446	86.19
1037.609	110.76
1037.772	-14.17
1037.935	98.47
1038.098	47.27
1038.261	-61.27
1038.424	-151.38
1038.586	-124.76
1038.749	2.22
1038.912	4.27
1039.075	16.55
1039.237	-3.93
1039.4	26.79
1039.563	-32.6
1039.725	37.03
1039.888	-38.74
1040.051	-18.26
1040.213	135.34
1040.376	-63.32
1040.539	116.9
1040.701	-3.93
1040.864	51.37
1041.026	-16.21
1041.189	57.51
1041.351	116.9
1041.514	-12.12
1041.676	71.85
1041.838	69.8
1042.001	774.3
1042.163	118.95
1042.326	0.17
1042.488	16.55
1042.65	186.54
1042.813	182.44
1042.975	32.94
1043.137	213.16
1043.3	225.45
1043.462	51.37
1043.624	75.95
1043.786	-67.41
1043.948	16.55
1044.111	-42.84
1044.273	-77.65
1044.435	28.84
1044.597	129.19
1044.759	-206.67
1044.921	-18.26
1045.083	-182.1
