Data from USB4F064561__1__11-03-17-124.txt Node

Date: Tue Jun 01 11:03:17 EDT 2021
User: smith.tr
Spectrometer: USB4F06456
Trigger mode: 4
Integration Time (sec): 6.000000E-3
Scans to average: 100
Electric dark correction enabled: true
Nonlinearity correction enabled: false
Boxcar width: 0
XAxis mode: Wavelengths
Number of Pixels in Spectrum: 3648
>>>>>Begin Spectral Data<<<<<
345.532	-6.79
345.749	-6.79
345.966	-6.79
346.184	-12.75
346.401	-2.82
346.618	-7.45
346.836	-2.7
347.053	-6.28
347.27	2.91
347.487	-3.31
347.705	4.64
347.922	-3.02
348.139	2.4
348.356	-3.47
348.574	4.47
348.791	7.91
349.008	3.9
349.225	-1.37
349.442	104.7
349.659	167.82
349.877	179.96
350.094	170.87
350.311	173
350.528	176.73
350.745	182.4
350.962	177.67
351.179	180.97
351.396	189.57
351.613	187.72
351.83	187.46
352.047	196.84
352.264	190.98
352.481	192.7
352.698	208.04
352.915	204.82
353.132	198.23
353.349	202.71
353.566	207.06
353.783	212.24
354	208.88
354.217	208.16
354.433	218.16
354.65	223.09
354.867	214.88
355.084	225.41
355.301	220.39
355.518	229.91
355.735	225.94
355.951	224.83
356.168	233.74
356.385	234.75
356.602	237.88
356.818	236.49
357.035	235.11
357.252	250.19
357.469	242.02
357.685	255.33
357.902	249.24
358.119	259.89
358.335	254.22
358.552	265.12
358.769	270.56
358.985	270.3
359.202	262.99
359.419	281.75
359.635	276.73
359.852	273.23
360.068	284.72
360.285	294.28
360.501	288.44
360.718	291.88
360.934	298.95
361.151	300.75
361.367	298.81
361.584	312.9
361.8	314.27
362.017	314.33
362.233	315.91
362.45	327.07
362.666	314.78
362.883	333.85
363.099	326.76
363.315	338.72
363.532	338
363.748	344.86
363.965	346.73
364.181	354.8
364.397	351.7
364.614	353.96
364.83	364.65
365.046	372.2
365.262	375.26
365.479	384.29
365.695	381.95
365.911	400.86
366.128	383.1
366.344	397.27
366.56	390.02
366.776	401.61
366.992	408.9
367.209	408.72
367.425	414.7
367.641	434.93
367.857	426.86
368.073	440.38
368.289	437.92
368.505	440.48
368.722	452.65
368.938	455.27
369.154	448.51
369.37	468.17
369.586	458.08
369.802	476.98
370.018	484.95
370.234	478.37
370.45	479.52
370.666	507.88
370.882	495.29
371.098	504.46
371.314	499.18
371.53	516.89
371.746	523.22
371.962	534.9
372.178	532.46
372.393	549.03
372.609	540.77
372.825	554.56
373.041	543.39
373.257	568.58
373.473	572.11
373.689	577.76
373.904	577.06
374.12	587.98
374.336	596.91
374.552	611.9
374.767	608.19
374.983	605.63
375.199	625.29
375.415	628
375.63	631.54
375.846	652.59
376.062	646.55
376.278	650.26
376.493	660.42
376.709	673.46
376.925	684.93
377.14	685.87
377.356	702.87
377.571	693.53
377.787	709.22
378.003	717.51
378.218	704.86
378.434	747.13
378.649	730.93
378.865	749.28
379.08	759.82
379.296	774.26
379.511	772.93
379.727	775.08
379.942	793.49
380.158	804.1
380.373	807.99
380.589	813.19
380.804	830.27
381.02	834.47
381.235	851.45
381.45	850.3
381.666	862.73
381.881	870.37
382.096	906.21
382.312	884.52
382.527	894.29
382.742	906.6
382.958	910.94
383.173	935.11
383.388	922.06
383.604	932.61
383.819	944.8
384.034	978.59
384.249	973.14
384.465	988.11
384.68	998.84
384.895	1016.99
385.11	1026.39
385.325	1026.69
385.541	1023.68
385.756	1032.55
385.971	1051.56
386.186	1064.62
386.401	1074.51
386.616	1098.58
386.831	1106.69
387.046	1101.49
387.261	1095.26
387.477	1162.45
387.692	1129.73
387.907	1161.18
388.122	1157.58
388.337	1182.09
388.552	1176.16
388.767	1183.34
388.982	1182.3
389.197	1205.95
389.411	1192.99
389.626	1235.61
389.841	1238.78
390.056	1240.65
390.271	1270.36
390.486	1264.14
390.701	1280.19
390.916	1284.45
391.131	1305.77
391.345	1284
391.56	1309.29
391.775	1323.83
391.99	1328.87
392.205	1307.98
392.42	1350.01
392.634	1397.52
392.849	1377.18
393.064	1390.35
393.279	1420.46
393.493	1414.05
393.708	1399.96
393.923	1413.68
394.137	1449.46
394.352	1446.18
394.567	1442.88
394.781	1503.17
394.996	1468.56
395.211	1570.66
395.425	1479.87
395.64	1558.7
395.854	1548.15
396.069	1535.08
396.284	1558.88
396.498	1577.39
396.713	1539.4
396.927	1618.07
397.142	1581.45
397.356	1642.7
397.571	1595.27
397.785	1667.36
398	1670.76
398.214	1661.52
398.428	1647.23
398.643	1735.33
398.857	1664.53
399.072	1739.18
399.286	1710.33
399.5	1723.62
399.715	1720.18
399.929	1777.54
400.144	1777.97
400.358	1809.06
400.572	1850.86
400.787	1824.83
401.001	1848.24
401.215	1904.17
401.429	1824.67
401.644	1846.5
401.858	1902.08
402.072	1921.74
402.286	1920.16
402.501	1984.9
402.715	1980.62
402.929	1988.99
403.143	1984.82
403.357	1999.32
403.571	1979.9
403.786	2062.43
404	2053.05
404.214	2063.97
404.428	2093.79
404.642	2055.86
404.856	2142.41
405.07	2120.94
405.284	2204.83
405.498	2124.49
405.712	2185.78
405.926	2188.2
406.14	2215.89
406.354	2230.86
406.568	2207.88
406.782	2268.28
406.996	2270.24
407.21	2309.54
407.424	2316.22
407.638	2339.24
407.852	2359.61
408.066	2306.33
408.28	2319.23
408.493	2411.33
408.707	2384.44
408.921	2480.02
409.135	2468.05
409.349	2438.97
409.563	2492.53
409.776	2550.28
409.99	2500.84
410.204	2529.1
410.418	2532.98
410.631	2562.16
410.845	2555.03
411.059	2568.2
411.273	2639.31
411.486	2615
411.7	2676.64
411.914	2627.59
412.127	2719.2
412.341	2710.1
412.555	2653.44
412.768	2709.14
412.982	2693.62
413.195	2766.94
413.409	2749.94
413.623	2817.58
413.836	2767.06
414.05	2886.91
414.263	2848.08
414.477	2896.55
414.69	2900.63
414.904	2841.83
415.117	2925.98
415.331	2994.32
415.544	2946.36
415.758	2961.29
415.971	2967.7
416.185	2991.76
416.398	3115.21
416.611	3013.39
416.825	3035.61
417.038	3072.76
417.251	3129.71
417.465	3120.13
417.678	3150.58
417.891	3109.4
418.105	3114.76
418.318	3203.99
418.531	3196.15
418.745	3223.69
418.958	3219.68
419.171	3248.9
419.384	3315.03
419.598	3284.72
419.811	3363.32
420.024	3329.31
420.237	3402.69
420.45	3446.68
420.664	3401.33
420.877	3405.23
421.09	3468.98
421.303	3448.95
421.516	3540.17
421.729	3467.81
421.942	3542.13
422.155	3525.87
422.368	3643.24
422.582	3553.21
422.795	3543.34
423.008	3609.39
423.221	3625.26
423.434	3668.49
423.647	3637.12
423.86	3648.09
424.073	3862.7
424.286	3710.6
424.498	3818.63
424.711	3797.15
424.924	3826.04
425.137	3842.92
425.35	3933.44
425.563	3977.57
425.776	3921.01
425.989	3919.51
426.202	4002.8
426.414	4105.36
426.627	4032.4
426.84	4216.67
427.053	4144.62
427.266	4172.35
427.478	4156.24
427.691	4198.28
427.904	4221.14
428.117	4399.15
428.329	4336.29
428.542	4264.02
428.755	4332.01
428.967	4330.19
429.18	4414.81
429.393	4561.63
429.605	4456.92
429.818	4548.73
430.031	4463.88
430.243	4472.5
430.456	4704.83
430.668	4679.31
430.881	4659.3
431.094	4587.13
431.306	4750.48
431.519	4816.46
431.731	4764.77
431.944	4742.75
432.156	4773.97
432.369	4975.44
432.581	4976.63
432.794	5094.23
433.006	4952.77
433.218	5054.25
433.431	4963.5
433.643	5020.93
433.856	5165.91
434.068	5113.05
434.28	5178.71
434.493	5111.94
434.705	5141.58
434.918	5366.48
435.13	5233.9
435.342	5256.34
435.554	5388.21
435.767	5426.39
435.979	5509.37
436.191	5504.29
436.404	5517.28
436.616	5713.98
436.828	5623.95
437.04	5450.06
437.252	5720.97
437.465	5532.08
437.677	5643.78
437.889	5863.38
438.101	5618.96
438.313	5718.51
438.525	5852.04
438.737	5725.86
438.949	5808.74
439.162	5773.07
439.374	5895.08
439.586	5963.12
439.798	5847.74
440.01	6099.76
440.222	5866.64
440.434	6156.2
440.646	6078.54
440.858	6016.84
441.07	6124.97
441.282	6159.31
441.494	6255.79
441.706	6278.14
441.918	6104.55
442.129	6264.62
442.341	6146.94
442.553	6232.39
442.765	6416.78
442.977	6387.13
443.189	6240.43
443.401	6384.26
443.612	6340.37
443.824	6574.05
444.036	6657.38
444.248	6537.31
444.46	6579.15
444.671	6517.22
444.883	6567.64
445.095	6551.81
445.307	6485.49
445.518	6713.97
445.73	6667.82
445.942	6681.59
446.153	6716.67
446.365	6771.92
446.577	6672.19
446.788	6699.18
447	6767.81
447.212	7004.59
447.423	6750.28
447.635	6939.43
447.846	6745.32
448.058	7091.45
448.269	6853.21
448.481	6957.96
448.692	6944.73
448.904	7126.75
449.115	7000.74
449.327	7086.14
449.538	7133.2
449.75	7179.26
449.961	7278.43
450.173	7179.86
450.384	7116.33
450.596	7181.15
450.807	7185.41
451.018	7258.97
451.23	7340.05
451.441	7122.47
451.652	7351.4
451.864	7405.79
452.075	7196.14
452.286	7348.14
452.498	7426.95
452.709	7319.26
452.92	7313.14
453.131	7471.3
453.343	7493.98
453.554	7483.74
453.765	7640.16
453.976	7597.15
454.187	7614.31
454.399	7614.87
454.61	7772.15
454.821	7832.09
455.032	7846.76
455.243	7650.99
455.454	7759.08
455.665	8107.18
455.877	7934.86
456.088	7917.23
456.299	7939.96
456.51	8064.64
456.721	7979.38
456.932	8074.53
457.143	8156.8
457.354	8446.57
457.565	8311.09
457.776	8315.62
457.987	8373
458.198	8392.64
458.409	8432.74
458.62	8402.23
458.83	8420.46
459.041	8513.9
459.252	8569.2
459.463	8731.42
459.674	8766.6
459.885	8691.83
460.096	8986
460.306	8784.81
460.517	8933.57
460.728	8976.85
460.939	9027.21
461.15	8808.65
461.36	9159.24
461.571	9348.08
461.782	9275.97
461.993	9151.91
462.203	9480.77
462.414	9379.25
462.625	9445.05
462.835	9757.29
463.046	9797.9
463.257	9783.38
463.467	9639.65
463.678	9842.75
463.889	9897.55
464.099	9921.8
464.31	10132.89
464.52	10043.55
464.731	10181.14
464.941	10234.1
465.152	10258.49
465.362	10493.04
465.573	10596.69
465.783	10616.21
465.994	10487.16
466.204	10750.63
466.415	11147.47
466.625	11148.74
466.836	10861.49
467.046	11250.11
467.257	11024.02
467.467	11327.79
467.677	11294.21
467.888	11352.43
468.098	11515.14
468.308	11760.59
468.519	11656.53
468.729	12019.43
468.939	12229.23
469.15	12161.23
469.36	12028.57
469.57	12194.92
469.78	12552.07
469.991	12293.98
470.201	12840.48
470.411	12621.86
470.621	13059.02
470.831	12658.58
471.042	12951.4
471.252	13112.8
471.462	12797.87
471.672	13095.37
471.882	13351.27
472.092	13251.68
472.302	13492.58
472.512	13651.83
472.723	13911.82
472.933	14069.8
473.143	14018.21
473.353	14207.3
473.563	14381.21
473.773	14663.67
473.983	14472.78
474.193	14431.82
474.403	14960.17
474.613	15105.54
474.822	15210.27
475.032	15069.1
475.242	15330.43
475.452	15353.75
475.662	15597.34
475.872	15704.49
476.082	15795.76
476.292	16005.11
476.502	15999.15
476.711	16256.13
476.921	16342.49
477.131	16438.68
477.341	16633.9
477.551	16833.55
477.76	16827.24
477.97	17338.91
478.18	17320.19
478.39	17426.52
478.599	17525.95
478.809	17723.7
479.019	17554.19
479.228	17782.93
479.438	18011.87
479.648	18148.84
479.857	18170.63
480.067	18335.31
480.276	18286.69
480.486	18591.69
480.696	18720.28
480.905	18610.72
481.115	18950.27
481.324	18979.93
481.534	19250.61
481.743	19444.22
481.953	19586.1
482.162	19476.13
482.372	19820.13
482.581	19925.39
482.791	19840.67
483	20337.75
483.21	20268.3
483.419	20082.41
483.628	20547.89
483.838	20798.15
484.047	20710.13
484.257	20792.28
484.466	20875.2
484.675	21203.34
484.885	21159.19
485.094	21456.35
485.303	21408.76
485.512	21686.58
485.722	21765.31
485.931	21828.1
486.14	22122.57
486.349	22307.1
486.559	22483.94
486.768	22711.53
486.977	22600.04
487.186	22955.44
487.395	22819.72
487.605	22963.1
487.814	23026.51
488.023	22955.83
488.232	23337.66
488.441	23304.15
488.65	23378.59
488.859	23532.48
489.068	23539.75
489.277	23886.55
489.486	24044.35
489.695	24100.42
489.904	24213.04
490.113	24503.34
490.322	24659.29
490.531	24526.75
490.74	24923.79
490.949	24765.31
491.158	25220.99
491.367	25226.74
491.576	25141.12
491.785	25308.5
491.994	25373.5
492.203	25581.1
492.412	25387.53
492.62	25681.51
492.829	25778.75
493.038	25817.83
493.247	25952.81
493.456	25930.01
493.664	26240.81
493.873	26378.62
494.082	26376.92
494.291	26553.11
494.499	26655.51
494.708	26898.89
494.917	26895.39
495.126	27103.01
495.334	27159.66
495.543	27221.3
495.751	27259.54
495.96	27464.29
496.169	27383.07
496.377	27593.68
496.586	27476.8
496.795	27603.25
497.003	27561.88
497.212	27642.71
497.42	27908.99
497.629	27788.32
497.837	27933.17
498.046	28175.04
498.254	28005.2
498.463	28314.22
498.671	28136.56
498.88	28616.46
499.088	28638.8
499.297	28720.11
499.505	28828.73
499.713	29060.4
499.922	29233.86
500.13	29115.24
500.338	29224.44
500.547	29472.06
500.755	29527.97
500.963	29495.49
501.172	29501
501.38	29921.9
501.588	29733.11
501.797	29974.67
502.005	30128.31
502.213	30038.36
502.421	29886.51
502.63	30195.26
502.838	30070.99
503.046	30140.74
503.254	29825.78
503.462	30062.37
503.67	29909.67
503.879	30213.75
504.087	30347.16
504.295	30247.44
504.503	30464.77
504.711	30480.99
504.919	30600.39
505.127	30811.29
505.335	30592.22
505.543	30863.06
505.751	31180.68
505.959	31012.05
506.167	31128.42
506.375	31281.32
506.583	31319.49
506.791	31339.56
506.999	31516.79
507.207	31757.82
507.415	31558.86
507.623	31765.89
507.831	31727.81
508.039	31899.21
508.246	31391.23
508.454	32030.18
508.662	31840.6
508.87	31879.84
509.078	32108.18
509.286	32115.17
509.493	31946.19
509.701	32288.43
509.909	32478.76
510.117	32154.47
510.324	32662.59
510.532	32511.14
510.74	32570.02
510.947	32774.37
511.155	32629.37
511.363	32775.13
511.57	32514.36
511.778	32829.56
511.986	32795.13
512.193	32819.77
512.401	32795.24
512.609	32841.73
512.816	32796.4
513.024	33034.15
513.231	32664.64
513.439	33229.16
513.646	33109.21
513.854	33227.21
514.061	33439.34
514.269	33515.53
514.476	33540.7
514.684	33719.48
514.891	33563.29
515.099	33871.05
515.306	33695.44
515.513	34181.83
515.721	33789.89
515.928	34445.94
516.135	34079.74
516.343	34383.72
516.55	34351.39
516.757	34491.22
516.965	34094.9
517.172	34382.68
517.379	34227.48
517.587	34618.34
517.794	34417.35
518.001	34691.04
518.208	34546.54
518.416	34809.48
518.623	34708.24
518.83	35002.97
519.037	34724.16
519.244	35235.19
519.451	35049.46
519.659	35064.41
519.866	34996.95
520.073	35498.64
520.28	35152.08
520.487	35400.93
520.694	35267.89
520.901	35703.9
521.108	35569.11
521.315	35682.11
521.522	35545.08
521.729	35801.47
521.936	36079.93
522.143	36084.44
522.35	35964.08
522.557	35983.9
522.764	36207.52
522.971	36237.44
523.178	36096.6
523.385	36425.79
523.592	36099.22
523.799	36528.62
524.005	36453.93
524.212	36776.26
524.419	36502.96
524.626	36780.01
524.833	36758.79
525.04	36713.1
525.246	37082.78
525.453	36853.27
525.66	36915.73
525.867	37434.17
526.073	37355.37
526.28	37492.62
526.487	37599.57
526.693	37742.86
526.9	37695.98
527.107	38148.89
527.313	37810.61
527.52	37807.62
527.727	38037.36
527.933	37998.02
528.14	37898.53
528.346	38454.94
528.553	37978.5
528.759	38030.07
528.966	38071.54
529.173	38433.23
529.379	38213.4
529.586	38188.5
529.792	38424.47
529.999	38570.2
530.205	38509.6
530.411	38769.96
530.618	38541.22
530.824	38514.19
531.031	38522.05
531.237	38557.13
531.443	38741.7
531.65	39111.11
531.856	38995.65
532.062	38906.11
532.269	39121.25
532.475	39114.69
532.681	39252.26
532.888	39250.17
533.094	39195.94
533.3	39414.41
533.506	38854.19
533.713	39317.61
533.919	39326.68
534.125	39557.83
534.331	39760.91
534.538	39801.28
534.744	40300.18
534.95	40333.89
535.156	40220.5
535.362	40465.78
535.568	40577.25
535.774	40740.04
535.98	40661.59
536.186	40870.97
536.393	40611.98
536.599	41051.7
536.805	40953.05
537.011	41285.87
537.217	41314.87
537.423	41241.57
537.629	41182.57
537.835	41725.49
538.04	41487.08
538.246	41644.84
538.452	41626.36
538.658	41811.21
538.864	41182.32
539.07	41656.1
539.276	41291.19
539.482	41617.74
539.688	41679.22
539.893	41645.86
540.099	41493.76
540.305	41936
540.511	41866.24
540.717	41812.59
540.922	42086.19
541.128	42219.46
541.334	41980.97
541.54	42565.69
541.745	42344.36
541.951	42256.93
542.157	42248.35
542.362	42387.8
542.568	42352.7
542.774	42510.76
542.979	42465.21
543.185	42575.76
543.39	42516.82
543.596	43002.7
543.802	42796.98
544.007	42948.84
544.213	42992.3
544.418	43013.72
544.624	43117.9
544.829	43177.19
545.035	43081.65
545.24	43291.14
545.446	43361.59
545.651	43974.14
545.857	43639.95
546.062	43756.44
546.267	43703.5
546.473	44100.41
546.678	44190.65
546.884	44000.84
547.089	43950.56
547.294	44367.14
547.5	44078.66
547.705	44125.56
547.91	44135.7
548.116	44092.79
548.321	44618.08
548.526	44415.08
548.731	44183.36
548.937	44662.93
549.142	44495.83
549.347	44821.03
549.552	44645.93
549.757	45023.56
549.963	44719.58
550.168	44687.48
550.373	44634.01
550.578	44624.53
550.783	44662.93
550.988	44506.71
551.193	44778.07
551.398	44724.45
551.603	44613.47
551.808	44633.38
552.013	44410.93
552.218	44609.58
552.424	44846.57
552.628	44662.05
552.833	45099.76
553.038	45008.85
553.243	45105.39
553.448	45432.17
553.653	45614.74
553.858	45522.44
554.063	45369.89
554.268	45674.52
554.473	45579.68
554.678	45869.26
554.883	45764.55
555.087	46068.24
555.292	45794.92
555.497	46224.63
555.702	45831.23
555.907	45977.6
556.111	46091.47
556.316	45807.91
556.521	45780.22
556.725	45979.16
556.93	45712.35
557.135	45940.66
557.34	45899.57
557.544	45823.66
557.749	46209.8
557.954	46001.97
558.158	46219.77
558.363	46210.19
558.567	46149.59
558.772	46299.58
558.977	46173.39
559.181	46467.17
559.386	46211.97
559.59	46419.18
559.795	46278.61
559.999	46524.18
560.204	46041.78
560.408	46373.04
560.613	46310.58
560.817	46216.29
561.021	46228.56
561.226	46624.55
561.43	46079.08
561.635	46195.46
561.839	46139.47
562.043	46373.78
562.248	46349.37
562.452	46436.26
562.656	46648.97
562.861	46541.67
563.065	46435.3
563.269	46678.58
563.474	46917.93
563.678	46836.05
563.882	46853.25
564.086	47351.85
564.291	46831.17
564.495	47300.14
564.699	47321.54
564.903	47663.22
565.107	47415.97
565.311	47570.45
565.516	47700.46
565.72	47673.59
565.924	47511.55
566.128	48116.38
566.332	48110.4
566.536	48264.02
566.74	48095.14
566.944	48339.28
567.148	47979.8
567.352	48213.88
567.556	47908.02
567.76	48065.1
567.964	47912.83
568.168	47942.32
568.372	47818.07
568.576	48175.93
568.78	47543.07
568.984	48104.64
569.188	47632.73
569.392	47767.67
569.595	47581.57
569.799	47915.18
570.003	47641.33
570.207	47894.25
570.411	47856.65
570.615	48187.42
570.818	47978.53
571.022	48283.51
571.226	48194.83
571.43	48345.85
571.633	48398.98
571.837	48156.01
572.041	47753.66
572.244	48426.54
572.448	48075.01
572.652	48367.25
572.855	48275.38
573.059	48491.59
573.263	48245.5
573.466	48620.55
573.67	48221.97
573.873	48704.94
574.077	48307.9
574.28	48342.25
574.484	48644.45
574.687	48461.83
574.891	48681.19
575.094	48841.6
575.298	48492.1
575.501	49176.45
575.705	48869.66
575.908	49121.7
576.112	49068.36
576.315	49035.98
576.518	49300.04
576.722	49197.85
576.925	49372.44
577.129	49195.04
577.332	49090.27
577.535	49380.32
577.739	48856.12
577.942	49221.24
578.145	49134.69
578.348	49218.74
578.552	49209.44
578.755	49460.77
578.958	49321.83
579.161	49547.31
579.365	49487.62
579.568	49613.71
579.771	49548.64
579.974	49843.02
580.177	49474.51
580.38	49727.23
580.583	49579.51
580.787	49571.58
580.99	49824.34
581.193	49750.47
581.396	49866.94
581.599	50041.59
581.802	49519.54
582.005	50243.36
582.208	49891.13
582.411	50365.64
582.614	50363.2
582.817	50462.88
583.02	50532.2
583.223	50674.11
583.426	50685.47
583.629	50570.56
583.831	50778.86
584.034	50749.35
584.237	50639.25
584.44	50950.23
584.643	50931.62
584.846	51210.55
585.049	51315.92
585.251	51236.52
585.454	51136.74
585.657	51476.3
585.86	51231.42
586.062	51425.2
586.265	51627.7
586.468	51257.8
586.671	51350.32
586.873	51532.96
587.076	51566.96
587.279	51453.62
587.481	51307.46
587.684	51610.46
587.886	51128.26
588.089	51634.83
588.292	51393.8
588.494	51572.1
588.697	51531.82
588.899	51978.76
589.102	51772.6
589.304	51977.35
589.507	51891.23
589.709	52112.19
589.912	52454.98
590.114	52454.92
590.317	52046.57
590.519	52425.43
590.722	52404.23
590.924	52002.54
591.126	52188.8
591.329	52108.73
591.531	51902.07
591.734	52131.69
591.936	52366.81
592.138	52341.32
592.341	52633.75
592.543	52327.37
592.745	52112.91
592.947	52453.5
593.15	52513.37
593.352	52420.96
593.554	52454.69
593.756	52656.03
593.959	52715.79
594.161	52522.73
594.363	52591.19
594.565	52776.16
594.767	52664.55
594.969	53236.75
595.171	52842.95
595.374	53058.45
595.576	53018.66
595.778	52895.8
595.98	53217.58
596.182	53052.31
596.384	52778.97
596.586	53307.51
596.788	52944.4
596.99	53367.08
597.192	53020.28
597.394	53056.53
597.596	53234.52
597.798	53222.58
598	53200.58
598.202	53421.66
598.403	53279.72
598.605	53470.26
598.807	53356.35
599.009	53650.42
599.211	53276.07
599.413	53620.33
599.615	53630.51
599.816	53732.87
600.018	53578.21
600.22	53432.76
600.422	53593.01
600.623	53769.73
600.825	53841.25
601.027	53698.3
601.228	53794.55
601.43	53550.93
601.632	53501.06
601.833	53401.18
602.035	53587.83
602.237	53997.04
602.438	53304.64
602.64	54018.83
602.842	53379.17
603.043	53742.48
603.245	53915.24
603.446	53985.04
603.648	53606.24
603.849	54011.29
604.051	53387.89
604.252	53435.69
604.454	53340.32
604.655	53395.47
604.857	53062.92
605.058	53256.14
605.259	53124.03
605.461	53136.3
605.662	52850.3
605.864	52949.4
606.065	52668.11
606.266	52885.2
606.468	52810.36
606.669	52795.35
606.87	52845.4
607.072	52730.41
607.273	52955.38
607.474	53083.87
607.675	52942.5
607.877	53275.44
608.078	52843.01
608.279	52969.26
608.48	53367.98
608.681	53321.11
608.883	53349.51
609.084	53974.86
609.285	53707.05
609.486	53629.49
609.687	53761.97
609.888	53606.12
610.089	53567.97
610.29	53495
610.491	53042.17
610.692	53616.09
610.893	53138.02
611.094	53251.43
611.295	53345.27
611.496	53374.62
611.697	53279.8
611.898	53624.35
612.099	53229.3
612.3	53405.75
612.501	53589.64
612.702	53523.61
612.903	53427.23
613.104	53212.89
613.305	53179.53
613.505	53371.4
613.706	53064.68
613.907	53249.37
614.108	53214.43
614.309	53307.94
614.509	52999.88
614.71	53077.6
614.911	53077.58
615.112	52804.16
615.312	52881.49
615.513	53080.94
615.714	52824.94
615.914	52977.09
616.115	52909.1
616.316	52961.56
616.516	52809.22
616.717	53470.14
616.918	52706.9
617.118	53105.6
617.319	53037.03
617.519	53228.33
617.72	53008.09
617.92	53207.22
618.121	53137.69
618.321	53433.93
618.522	52672.66
618.722	53369.6
618.923	53028.66
619.123	53133.31
619.324	53067.98
619.524	53012.93
619.724	52705.71
619.925	53061.85
620.125	52669.42
620.326	52652.83
620.526	52128.1
620.726	52563.68
620.927	52272.69
621.127	52480.03
621.327	52304.88
621.527	52518.24
621.728	52454.41
621.928	52519.8
622.128	52349.63
622.328	52942.89
622.529	52371.79
622.729	52738.01
622.929	52693.4
623.129	52800.86
623.329	52852.28
623.529	52957.22
623.73	52597.35
623.93	52901.13
624.13	52622.28
624.33	53001.7
624.53	52476.63
624.73	53082.37
624.93	52894.78
625.13	52922.59
625.33	52831.68
625.53	53021.55
625.73	52956.98
625.93	53205.23
626.13	52904.08
626.33	53088.15
626.53	52560.35
626.73	53250.53
626.929	52990.65
627.129	53034.12
627.329	52851.75
627.529	53402.14
627.729	52633.13
627.929	53302.18
628.128	53160.59
628.328	53241.44
628.528	53029.09
628.728	53654.31
628.928	53124.52
629.127	53379.04
629.327	53139.39
629.527	53387.05
629.726	53012.03
629.926	53135.83
630.126	52803.4
630.325	53102.05
630.525	52993.14
630.725	53099.09
630.924	53020.98
631.124	53100.68
631.323	53040.96
631.523	53271.14
631.722	53114.53
631.922	53260.36
632.122	53187.97
632.321	53313.51
632.521	53446.13
632.72	53348.65
632.919	52915.03
633.119	53201.44
633.318	53000.68
633.518	52844.09
633.717	52648.1
633.917	52541.16
634.116	52626.86
634.315	52357.39
634.515	51738.72
634.714	52595.02
634.913	52194.58
635.113	52247.5
635.312	52678.62
635.511	52681.52
635.71	52445.15
635.91	52687.05
636.109	52687.57
636.308	52902.01
636.507	52838.85
636.706	53139.31
636.906	52761.66
637.105	53178.87
637.304	52931.05
637.503	52726.64
637.702	52842.39
637.901	52965.23
638.1	52474.45
638.299	52584.21
638.499	52406.28
638.698	52491.33
638.897	52753.84
639.096	52590.68
639.295	52533.89
639.494	52651.83
639.693	52197.34
639.892	52481.66
640.09	52322.13
640.289	52633.3
640.488	52541.87
640.687	52525.24
640.886	52215.49
641.085	52326.24
641.284	52463.21
641.483	52427.33
641.682	52250.45
641.88	52546.44
642.079	52355.22
642.278	52200.03
642.477	52084.28
642.675	52625.64
642.874	52277.11
643.073	52638.6
643.272	52561.96
643.47	52967.01
643.669	52370.48
643.868	52840.49
644.066	52670.79
644.265	52960.11
644.464	52759.1
644.662	53051.43
644.861	53009.36
645.059	53412.22
645.258	52654.43
645.457	52975.2
645.655	52740.42
645.854	53079.88
646.052	52826.83
646.251	53051.59
646.449	52845.98
646.648	53122.92
646.846	52804.28
647.044	53347.22
647.243	52858.69
647.441	53332.78
647.64	53052.62
647.838	52947.82
648.036	53046.08
648.235	53238.63
648.433	52591.46
648.631	53175.62
648.83	52651.36
649.028	52945.12
649.226	52612.51
649.425	52782.53
649.623	52502.51
649.821	52451.17
650.019	52398.02
650.218	52886.06
650.416	52701.84
650.614	52593.5
650.812	52605.77
651.01	52720.17
651.208	52432.96
651.406	52924.27
651.605	52708.5
651.803	52922.28
652.001	52346.11
652.199	52459.05
652.397	52269.13
652.595	52246.82
652.793	52138.69
652.991	52243.38
653.189	52007.05
653.387	52164.99
653.585	52040.92
653.783	52309.96
653.981	51814.56
654.179	52279.39
654.377	51994.19
654.574	52304.39
654.772	52097.87
654.97	52200.62
655.168	52567.97
655.366	52394.4
655.564	52450.15
655.761	52580.81
655.959	52491.96
656.157	52636.69
656.355	52727.13
656.553	52740.32
656.75	52684.94
656.948	53038.1
657.146	52904.59
657.343	53412.3
657.541	53312.5
657.739	53175.86
657.936	52880.18
658.134	53100.6
658.332	52841.92
658.529	52779.7
658.727	52462.95
658.924	53175.76
659.122	52645.3
659.319	52664.96
659.517	52397.21
659.714	52584.51
659.912	52466.65
660.109	52638.31
660.307	52106.68
660.504	52590.55
660.702	52674.66
660.899	52269.92
661.097	52330.03
661.294	52441.46
661.491	52130.87
661.689	52519.8
661.886	51876.04
662.083	52218.99
662.281	51846.02
662.478	52376.03
662.675	51982.84
662.873	52273.94
663.07	52497.86
663.267	52682.32
663.464	52365.79
663.662	52816.22
663.859	52571.61
664.056	52516.03
664.253	52393.13
664.45	52743.93
664.647	52048.62
664.845	52283.17
665.042	52159.74
665.239	52377.3
665.436	51737.82
665.633	52282.03
665.83	51402.69
666.027	51762.6
666.224	51440.11
666.421	51375.88
666.618	51246.17
666.815	51184.64
667.012	51018.12
667.209	51197.36
667.406	51121.55
667.603	51248.4
667.8	51125.38
667.997	51470.77
668.194	51306.81
668.39	51350.59
668.587	51217.23
668.784	51555.82
668.981	51154.05
669.178	51566.14
669.375	50987.77
669.571	51451.51
669.768	51052.78
669.965	51598.4
670.162	51270.62
670.358	51486.49
670.555	51044.62
670.752	51437.85
670.948	50604.78
671.145	51416.62
671.342	50309.57
671.538	51064.78
671.735	50611.36
671.932	50699.62
672.128	50238.58
672.325	50691.19
672.521	50583.28
672.718	50291.55
672.914	50719.49
673.111	50684.78
673.307	50019.12
673.504	50670.03
673.7	50365.05
673.897	50638.1
674.093	50566.96
674.29	50637.59
674.486	50489.52
674.682	50537.69
674.879	50077.96
675.075	50463.53
675.272	49931.72
675.468	50401.36
675.664	50023.86
675.861	50006.24
676.057	49267.03
676.253	49761.12
676.449	49283.92
676.646	49367.73
676.842	49293.55
677.038	49462.1
677.234	48901.4
677.43	49254.27
677.627	48892.21
677.823	49409.32
678.019	49175.67
678.215	49343.46
678.411	49157.28
678.607	49675.95
678.803	49068.87
678.999	49612.79
679.196	49108.23
679.392	49533.02
679.588	49318.84
679.784	49669.88
679.98	49225.52
680.176	49339.34
680.372	49066.41
680.568	49483.68
680.763	49056.8
680.959	49019.51
681.155	48952.24
681.351	49132.17
681.547	48578.36
681.743	48816.74
681.939	48633.47
682.135	48799.27
682.33	48256.09
682.526	48562.75
682.722	48006.57
682.918	48002.94
683.114	48079.58
683.309	48544.61
683.505	47715.28
683.701	47980.15
683.897	47957.39
684.092	48168.99
684.288	47914.35
684.484	48412.92
684.679	47890.98
684.875	48047.63
685.07	48152.05
685.266	48359.55
685.462	47835.68
685.657	48016.72
685.853	48080.87
686.048	47570.86
686.244	47805.91
686.439	47701.95
686.635	47470.39
686.83	47571.92
687.026	47053.5
687.221	47527.07
687.417	47493
687.612	47513.05
687.807	47360.41
688.003	47478.56
688.198	47127.39
688.394	47409.71
688.589	47368.21
688.784	47632.44
688.98	47035.97
689.175	47330.82
689.37	47045.58
689.565	47109.49
689.761	46877.89
689.956	47191.21
690.151	46842.27
690.346	46621.91
690.542	46417.63
690.737	46744.22
690.932	46335.46
691.127	46549.91
691.322	46334.81
691.517	46862.14
691.713	46577.86
691.908	46873.4
692.103	46696.5
692.298	46887.31
692.493	46663.83
692.688	46958.21
692.883	46473.82
693.078	46656.34
693.273	46488.59
693.468	46596.72
693.663	45996.55
693.858	46428.01
694.053	46173.18
694.248	46371.63
694.443	45929.21
694.637	45980.04
694.832	46094.13
695.027	45996.26
695.222	45773.23
695.417	46086.08
695.612	45762.69
695.806	45933.08
696.001	45506.08
696.196	45804.24
696.391	45742.47
696.585	45834.88
696.78	45478.72
696.975	45748.43
697.17	45613.06
697.364	45802.97
697.559	45981.43
697.754	46096.4
697.948	45822.69
698.143	45992.96
698.337	45790.25
698.532	46034.19
698.727	45488.28
698.921	45958.82
699.116	45717.16
699.31	45798.69
699.505	45322.66
699.699	45812.29
699.894	45502.78
700.088	45513.57
700.283	45356.51
700.477	45462.48
700.671	45502.51
700.866	45412.89
701.06	45306.54
701.255	45223.23
701.449	45362.02
701.643	45440.91
701.838	45205.48
702.032	45147.99
702.226	44916.94
702.421	45020.83
702.615	44749.68
702.809	44725.58
703.003	44653.12
703.198	44906.53
703.392	44441.44
703.586	44955.13
703.78	44688.32
703.974	44590.8
704.169	44587.48
704.363	44701.68
704.557	44467.72
704.751	44650.87
704.945	44589.34
705.139	44837.58
705.333	44756.48
705.527	45059.13
705.721	44589.98
705.915	44877.9
706.109	44600.26
706.303	45005.78
706.497	44336.38
706.691	44634.48
706.885	44390.22
707.079	44288.25
707.273	44026.67
707.467	44022.55
707.661	43702.6
707.855	43975.55
708.048	43805.59
708.242	43792.5
708.436	43644.13
708.63	43955.93
708.824	43533.54
709.018	43715.19
709.211	43702.16
709.405	43945.14
709.599	43724.1
709.792	43619.26
709.986	43603.02
710.18	43864.45
710.374	43870.79
710.567	43987.69
710.761	43719.78
710.954	44088.21
711.148	43745.89
711.342	44113.79
711.535	43519.59
711.729	43795.88
711.922	43570.66
712.116	43805.26
712.309	43091.15
712.503	43702.33
712.696	43602.22
712.89	43270.99
713.083	43554.94
713.277	43649.29
713.47	43154.78
713.664	43451.55
713.857	42896.39
714.05	43243.93
714.244	42945.71
714.437	42989.14
714.631	42772.14
714.824	42833.54
715.017	42909.83
715.21	42666.73
715.404	42701.4
715.597	42954.78
715.79	42618.11
715.984	42838.76
716.177	42291.89
716.37	42506.17
716.563	42525.57
716.756	42900.51
716.949	42693.7
717.143	42871.3
717.336	42435.33
717.529	42543.4
717.722	42452.06
717.915	42780.15
718.108	42729.71
718.301	42533.06
718.494	42345.04
718.687	42500.17
718.88	42214.5
719.073	42638.8
719.266	42506.17
719.459	42608.43
719.652	42353.45
719.845	42581.89
720.038	42344.24
720.231	42544.47
720.424	42457.59
720.617	42580.23
720.809	42287.96
721.002	42539.06
721.195	42372.32
721.388	42559.73
721.581	42222.1
721.774	42441.19
721.966	42347.6
722.159	42643.75
722.352	42148.7
722.544	42269.3
722.737	42100.94
722.93	42421.63
723.123	42160.41
723.315	42311.78
723.508	42105.51
723.701	42318.25
723.893	41524.54
724.086	42048.86
724.278	41785.78
724.471	41466.81
724.663	41542.91
724.856	41906.18
725.048	41314.85
725.241	41579.53
725.433	40945.01
725.626	41570.21
725.818	40913.55
726.011	41332.32
726.203	40973.8
726.396	41183.49
726.588	41071.41
726.78	41487.82
726.973	41067.15
727.165	40911.21
727.358	40656.22
727.55	41058.22
727.742	40581.06
727.934	40752.62
728.127	40691.65
728.319	40525.11
728.511	40452.04
728.704	40715.71
728.896	40279.27
729.088	40608.5
729.28	40492.3
729.472	40414.52
729.664	40231.49
729.857	40135.24
730.049	40099.58
730.241	40243.96
730.433	40081.81
730.625	40253.96
730.817	39799.31
731.009	40264.98
731.201	40024.98
731.393	40353.59
731.585	40024.87
731.777	39845.23
731.969	39998.33
732.161	40551.92
732.353	40543.38
732.545	40720.08
732.737	40126.7
732.929	40449.68
733.121	40144.45
733.313	40428.92
733.504	40334.3
733.696	40246.3
733.888	39741.78
734.08	40113.82
734.272	39569
734.463	39794.39
734.655	39401.82
734.847	39598.77
735.039	39255.41
735.23	39709.08
735.422	39136.1
735.614	39256.41
735.805	39089.14
735.997	39165.91
736.189	38639.73
736.38	39027.86
736.572	38783.11
736.764	38606.22
736.955	38513.06
737.147	38841.7
737.338	39039.86
737.53	38580.75
737.721	38715.73
737.913	38662.26
738.104	38814.01
738.296	38910.39
738.487	38819.25
738.679	39018.28
738.87	38833.94
739.061	39187.42
739.253	38863.04
739.444	39030.73
739.636	38676.76
739.827	38748.6
740.018	38694.25
740.21	38837.95
740.401	38574.95
740.592	38730.93
740.783	38291.23
740.975	38671.88
741.166	38495.78
741.357	38666.03
741.548	38703.91
741.74	38664.92
741.931	38557.73
742.122	38665.12
742.313	38535.47
742.504	38597.28
742.695	38487.05
742.886	38726.26
743.077	38209.8
743.269	38370.83
743.46	38058.19
743.651	37958
743.842	37994.58
744.033	38165.95
744.224	37741.61
744.415	37989.58
744.606	37731.91
744.797	38113.26
744.987	37546.75
745.178	37978.07
745.369	37545.15
745.56	37858.94
745.751	37392.95
745.942	37776.57
746.133	37352.48
746.324	37635.22
746.514	37332.92
746.705	37622.01
746.896	37357.23
747.087	37624.67
747.277	37513.94
747.468	37569.22
747.659	37216.92
747.85	37435.56
748.04	37431.69
748.231	37536.14
748.422	37514.45
748.612	37434.36
748.803	37329.09
748.993	37471.59
749.184	37235.01
749.375	37317.38
749.565	37245.25
749.756	37272.69
749.946	37235.07
750.137	37527.09
750.327	37035.37
750.518	37299.93
750.708	37240.29
750.899	37150.26
751.089	36988.27
751.279	37082.82
751.47	37059.52
751.66	37088.05
751.851	36691.44
752.041	36800.08
752.231	36632.6
752.422	36749.88
752.612	36524.12
752.802	36327.04
752.993	36195.79
753.183	36333.94
753.373	35875.81
753.563	35953.59
753.754	35732.8
753.944	36049.4
754.134	35380.08
754.324	35631.59
754.514	35560.79
754.704	35615.92
754.895	35252.55
755.085	35549.2
755.275	35294.78
755.465	35631.18
755.655	35274.26
755.845	35574.35
756.035	35218.47
756.225	35564.56
756.415	35186.26
756.605	35358.68
756.795	35165.51
756.985	35109.11
757.175	34846.79
757.365	35123.61
757.555	34759.98
757.745	34884.72
757.934	34593
758.124	34893.77
758.314	34256.87
758.504	34675.97
758.694	34466.97
758.884	34596.67
759.073	34397.65
759.263	34383.64
759.453	34305.2
759.643	34339.77
759.832	34174.32
760.022	34421.32
760.212	34082.14
760.401	34336.39
760.591	33993.34
760.781	33993.03
760.97	33982.1
761.16	33951.93
761.35	33903.54
761.539	33824.87
761.729	33574.35
761.918	33882.38
762.108	33755.82
762.297	33930.75
762.487	33669.7
762.676	33735.66
762.866	33484.75
763.055	33606.89
763.245	33649.49
763.434	33692.59
763.624	33669.04
763.813	33675.35
764.002	33152.26
764.192	33597.98
764.381	33423.2
764.57	33712.09
764.76	33260.25
764.949	33554.52
765.138	33428.24
765.328	33557.45
765.517	33358.78
765.706	33320.38
765.895	33082.24
766.085	33147.88
766.274	32950.66
766.463	32907.85
766.652	32599.39
766.841	32666.13
767.03	32463.47
767.219	32249.04
767.409	32355.7
767.598	32355.72
767.787	32013.12
767.976	32348.19
768.165	31745.55
768.354	31943.96
768.543	31575.26
768.732	31926.16
768.921	31531.17
769.11	31698.88
769.299	31417.77
769.488	31544.73
769.677	31164.07
769.865	31468.81
770.054	31138.1
770.243	31271.59
770.432	31146.68
770.621	31194.34
770.81	30960.54
770.998	31030.95
771.187	30886.8
771.376	30829.39
771.565	30701.02
771.754	30849.93
771.942	30936.38
772.131	30787.69
772.32	30597.89
772.508	30946
772.697	30613.25
772.886	30711.61
773.074	30583.25
773.263	30852.9
773.451	30506.14
773.64	30908.89
773.829	30707.99
774.017	30472.16
774.206	30803.91
774.394	30850.34
774.583	30658.86
774.771	30663.28
774.96	30673.7
775.148	30798.3
775.337	30598.22
775.525	30983.52
775.713	30401.39
775.902	30832.89
776.09	30495.18
776.279	30471.16
776.467	30607.39
776.655	30493.44
776.844	30114.02
777.032	30205.11
777.22	30087.51
777.408	29906.76
777.597	29747.39
777.785	29683.12
777.973	29166.77
778.161	29395.24
778.35	29083.54
778.538	29021.65
778.726	28646.28
778.914	28777.53
779.102	28720.6
779.29	28626.6
779.478	28400.27
779.666	28454.65
779.854	28200.8
780.043	28306.85
780.231	28008.33
780.419	28351.94
780.607	28125.81
780.795	28148.58
780.983	28135.21
781.17	28137.79
781.358	28125.81
781.546	28161.44
781.734	28144.61
781.922	28095.43
782.11	28042.11
782.298	27973.81
782.486	28091.56
782.674	28133.65
782.861	27945.81
783.049	28222.59
783.237	27747.08
783.425	27939.44
783.612	27747.03
783.8	27702.51
783.988	27818.9
784.176	27755.82
784.363	27371.31
784.551	27652.5
784.739	27381.8
784.926	27332.85
785.114	27184.87
785.301	27348.01
785.489	26934.65
785.677	27287.82
785.864	26928.52
786.052	26871.86
786.239	27023.26
786.427	27059.88
786.614	26642.28
786.802	27005.51
786.989	26635.42
787.177	27017.83
787.364	26642.67
787.551	26901.24
787.739	26642.65
787.926	26790.2
788.114	26571.54
788.301	26694.97
788.488	26395.97
788.676	26617.74
788.863	26394.97
789.05	26263.69
789.238	26027.74
789.425	26200.78
789.612	25636.73
789.799	25871.38
789.986	25479.22
790.174	25623
790.361	25318.16
790.548	25438.07
790.735	25257.48
790.922	25212.24
791.109	25041.93
791.296	25147.61
791.484	25059.44
791.671	25193.26
791.858	24827.72
792.045	24953.46
792.232	25043.92
792.419	24992.52
792.606	24888.05
792.793	24873.32
792.98	24729.54
793.167	24746.37
793.353	24486.03
793.54	24729.88
793.727	24484.74
793.914	24610.41
794.101	24305.79
794.288	24649.81
794.475	24302.92
794.662	24276.98
794.848	24034.29
795.035	24145.11
795.222	24171.24
795.409	24285.5
795.595	23898.06
795.782	24091.45
795.969	24046.68
796.155	24071.95
796.342	23942.09
796.529	24135.5
796.715	23734.1
796.902	24093.66
797.089	23923.27
797.275	24027
797.462	24007.44
797.648	24178.72
797.835	23767.85
798.021	24141.11
798.208	24008.84
798.394	24263.21
798.581	24009.92
798.767	24034.52
798.954	23828.57
799.14	24132.29
799.327	23994.27
799.513	24245.13
799.699	23959.52
799.886	24330.63
800.072	23949.3
800.258	24260.53
800.445	23992
800.631	24113.84
800.817	23974.88
801.004	24204.6
801.19	23903.45
801.376	24120.57
801.562	23901.05
801.749	24145.01
801.935	23818.52
802.121	24135.75
802.307	23843.44
802.493	23826.51
802.679	23868.88
802.866	24110.44
803.052	23878.34
803.238	24036.89
803.424	23607.25
803.61	23755.03
803.796	23729.78
803.982	23749.54
804.168	23648.58
804.354	23923.91
804.54	23693.98
804.726	23698.45
804.912	23567.15
805.098	23957.96
805.283	23617.37
805.469	23714.05
805.655	23851.31
805.841	23882.17
806.027	23854.11
806.213	23919.22
806.399	24031.71
806.584	23945.35
806.77	23992.7
806.956	24101.61
807.142	23901.44
807.327	24076.52
807.513	23965.05
807.699	24054.61
807.884	23924.07
808.07	23887.68
808.256	23780.96
808.441	23944.76
808.627	23756.53
808.813	24108.65
808.998	23823.02
809.184	24007.3
809.369	23772.85
809.555	23856.55
809.74	23721.16
809.926	24061.84
810.111	23773.95
810.297	23964.48
810.482	23693.28
810.668	23704.59
810.853	23741.92
811.039	23860.3
811.224	23557.65
811.409	23838.77
811.595	23634.14
811.78	23688.14
811.965	23515.66
812.151	23674.44
812.336	23318.59
812.521	23581.47
812.706	23419.43
812.892	23509.11
813.077	23350.6
813.262	23413.14
813.447	23315.35
813.633	23403.13
813.818	23286.46
814.003	23292.35
814.188	22998.92
814.373	23281.62
814.558	23238.06
814.743	23357.09
814.928	22958.11
815.113	23186.15
815.298	22993.45
815.483	23225.61
815.668	23089.85
815.853	23098.17
816.038	22994.33
816.223	23045.29
816.408	23125.36
816.593	23183.48
816.778	23104.17
816.963	23134.7
817.148	23050.69
817.333	23001.52
817.518	23017.19
817.702	23009.08
817.887	22732.95
818.072	22850.36
818.257	22689.76
818.442	22850.79
818.626	22663.4
818.811	22806.43
818.996	22397.15
819.18	22711.98
819.365	22412.2
819.55	22628.77
819.734	22389.36
819.919	22517.22
820.104	22393.09
820.288	22661.31
820.473	22292.62
820.657	22486.05
820.842	22329.36
821.026	22451.17
821.211	22231.44
821.396	22510.09
821.58	22351.58
821.764	22520.82
821.949	22395.49
822.133	22481.73
822.318	22386.29
822.502	22506.04
822.687	22453.69
822.871	22507.74
823.055	22281.39
823.24	22362.76
823.424	22128.84
823.608	22413.67
823.793	21995.25
823.977	22186.86
824.161	21955.71
824.345	22061.14
824.53	21919.27
824.714	22062.3
824.898	21657.77
825.082	21791.95
825.266	21414.37
825.45	21765.22
825.635	21437.98
825.819	21570.54
826.003	21465.71
826.187	21569.97
826.371	21390.94
826.555	21403.37
826.739	21365.44
826.923	21350.86
827.107	21228.78
827.291	21361.18
827.475	21114.13
827.659	21385.67
827.843	21264.39
828.027	21251.06
828.211	21089.87
828.395	21395.5
828.578	21189.75
828.762	21422.78
828.946	21252.84
829.13	21201.21
829.314	21027.77
829.498	21143.03
829.681	21158.7
829.865	21358.38
830.049	21044.71
830.233	21153.19
830.416	20862.5
830.6	21071.05
830.784	20831.92
830.967	20804.99
831.151	20812.78
831.335	20878.39
831.518	20473.14
831.702	20693.22
831.885	20450.88
832.069	20510.78
832.252	20398.94
832.436	20460.46
832.619	20359.7
832.803	20418.3
832.986	20293.04
833.17	20390.16
833.353	20369.8
833.537	20263.63
833.72	20258.86
833.904	20215.57
834.087	20178.13
834.27	20423.5
834.454	20130.33
834.637	20260.21
834.82	20091.26
835.004	20388.97
835.187	19926.99
835.37	20208.38
835.553	20034.98
835.737	20175.78
835.92	19855.43
836.103	20091.89
836.286	19888.51
836.469	19909.42
836.653	19688.93
836.836	19911.4
837.019	19580.17
837.202	19713.18
837.385	19669.23
837.568	19719.1
837.751	19434.84
837.934	19439.65
838.117	19218.23
838.3	19464.64
838.483	19303.79
838.666	19317.78
838.849	19094.59
839.032	19212.84
839.215	19050.46
839.398	19208.79
839.581	18962.85
839.764	19113.8
839.947	19069.5
840.129	19097.29
840.312	19101.49
840.495	19062.48
840.678	19010.24
840.861	19185.34
841.043	18900.87
841.226	19032.93
841.409	18995.57
841.592	18856.9
841.774	18799.5
841.957	19032.89
842.14	18928.21
842.322	18968.95
842.505	18856.72
842.687	19027.5
842.87	18660.71
843.053	18973.07
843.235	18812.4
843.418	19091.85
843.6	18761.69
843.783	18940.89
843.965	18693.85
844.148	18799.01
844.33	18764.23
844.513	18678.83
844.695	18646.29
844.878	18603.49
845.06	18336.64
845.242	18517.37
845.425	18331.64
845.607	18431.89
845.789	18210.22
845.972	18410.04
846.154	18065.81
846.336	18239.97
846.519	18050.89
846.701	18102.82
846.883	17886.19
847.065	18040.22
847.247	17888.01
847.43	18124.04
847.612	17907.02
847.794	18042.39
847.976	17765.54
848.158	18125.17
848.34	17997.37
848.522	18080.95
848.704	17781.02
848.886	18018.9
849.069	18009.56
849.251	17990.72
849.433	17922.07
849.615	18131.72
849.797	17906.85
849.978	18159.57
850.16	17819.63
850.342	17987.83
850.524	17860.42
850.706	18047.65
850.888	17804.15
851.07	17923.48
851.252	17751.82
851.434	17882.83
851.615	17625.65
851.797	17771.75
851.979	17578.64
852.161	17646.45
852.342	17472.48
852.524	17492.32
852.706	17324.76
852.887	17486.79
853.069	17356.6
853.251	17559.23
853.432	17245.77
853.614	17387.94
853.796	17395.88
853.977	17412.23
854.159	17237.37
854.34	17292.32
854.522	17242.08
854.703	17239.28
854.885	16994.67
855.066	17256.17
855.248	17152.99
855.429	17031.39
855.611	16993.56
855.792	17070.11
855.974	16669.8
856.155	17058.07
856.336	16652.68
856.518	16930.58
856.699	16670.14
856.881	16706.54
857.062	16576.27
857.243	16690.26
857.424	16607.4
857.606	16658.14
857.787	16537.56
857.968	16609.32
858.149	16641.6
858.331	16434.77
858.512	16307.78
858.693	16455.52
858.874	16361.84
859.055	16231.59
859.236	16169.79
859.417	16255.41
859.598	16107.75
859.779	16193.32
859.961	15929.05
860.142	16126.65
860.323	15832.61
860.504	15925.83
860.685	15890.2
860.865	15863.82
861.046	15677.6
861.227	15830.31
861.408	15624.51
861.589	15724.52
861.77	15408.84
861.951	15615.03
862.132	15433.4
862.313	15584.74
862.493	15250.23
862.674	15519.94
862.855	15211.42
863.036	15504.83
863.216	15321.27
863.397	15522.34
863.578	15215
863.759	15552.9
863.939	15337.74
864.12	15518.47
864.301	15331.72
864.481	15357.81
864.662	15342.3
864.842	15418.47
865.023	15395.59
865.204	15488.36
865.384	15337.78
865.565	15409.35
865.745	15331.1
865.926	15476.08
866.106	15205.17
866.287	15410.09
866.467	15198.02
866.648	15225.84
866.828	15224.34
867.008	15234.78
867.189	15094.89
867.369	15143.83
867.549	15125.75
867.73	15024.19
867.91	14978.26
868.09	15143.81
868.271	14829.37
868.451	14957.61
868.631	14778.01
868.811	14892.14
868.992	14743.99
869.172	14738.11
869.352	14705.02
869.532	14672.43
869.712	14520.97
869.892	14665.41
870.073	14446.95
870.253	14431.59
870.433	14338.57
870.613	14431.51
870.793	14226.02
870.973	14295.36
871.153	14071.33
871.333	14178.4
871.513	13949.44
871.693	13977.84
871.873	13925.01
872.053	13984.99
872.233	13701.94
872.412	13725.55
872.592	13587.52
872.772	13626.15
872.952	13578.16
873.132	13576.03
873.312	13456.1
873.492	13582.89
873.671	13235.46
873.851	13451.91
874.031	13211.8
874.211	13361.34
874.39	13270.35
874.57	13269.55
874.75	13093.53
874.929	13315.39
875.109	13187.35
875.289	13199.72
875.468	13122.69
875.648	13213.17
875.827	13124.09
876.007	13170.19
876.186	13093.31
876.366	13130.99
876.545	12926.58
876.725	13027.1
876.904	12992.75
877.084	13060.99
877.263	12838.37
877.443	12945.42
877.622	12810.15
877.802	12922.67
877.981	12688.83
878.16	12883.7
878.34	12759.06
878.519	12673.57
878.698	12672.9
878.878	12744.6
879.057	12671.49
879.236	12704.72
879.415	12656.19
879.595	12708.16
879.774	12666
879.953	12663.56
880.132	12566.65
880.311	12586.7
880.49	12585.61
880.67	12651.78
880.849	12543
881.028	12665.34
881.207	12526.1
881.386	12675.56
881.565	12555.28
881.744	12567.55
881.923	12475.95
882.102	12670.99
882.281	12494.62
882.46	12627.15
882.639	12494.25
882.818	12538.84
882.997	12346.39
883.176	12524.32
883.354	12453.75
883.533	12371.77
883.712	12379.83
883.891	12479.32
884.07	12374.59
884.249	12451.14
884.427	12288.56
884.606	12350.59
884.785	12257.35
884.964	12434.92
885.142	12245.3
885.321	12402.53
885.5	12263.71
885.678	12434.27
885.857	12298.55
886.036	12439.35
886.214	12370.56
886.393	12414.71
886.571	12238.2
886.75	12380.57
886.928	12299.14
887.107	12406.66
887.285	12263.04
887.464	12370.23
887.642	12255.95
887.821	12310.1
887.999	12257.71
888.178	12282.99
888.356	12176
888.534	12289.83
888.713	12157.26
888.891	12142.23
889.07	12092.81
889.248	12192.3
889.426	12039.34
889.604	12129.41
889.783	12010.81
889.961	12020.76
890.139	11956.74
890.317	11994.28
890.496	11905.59
890.674	12071.94
890.852	11924.67
891.03	12014.31
891.208	11874.05
891.386	12055.56
891.564	11923.38
891.742	12024.04
891.921	11857.07
892.099	11984
892.277	11845.68
892.455	11889.49
892.633	11848.28
892.811	11853.4
892.989	11760.94
893.167	11825.24
893.344	11683.18
893.522	11877.61
893.7	11743.2
893.878	11839.23
894.056	11662.94
894.234	11684.51
894.412	11686.29
894.589	11785.08
894.767	11573.3
894.945	11800.28
895.123	11631.83
895.301	11776.75
895.478	11669.13
895.656	11739.6
895.834	11577.89
896.011	11624.01
896.189	11701.38
896.367	11721.23
896.544	11612.17
896.722	11721.88
896.899	11654.73
897.077	11633.94
897.255	11623.07
897.432	11714.45
897.61	11661.53
897.787	11704.66
897.965	11566.57
898.142	11729.22
898.32	11675.85
898.497	11674.41
898.674	11551.62
898.852	11618.6
899.029	11606.69
899.207	11614.02
899.384	11517
899.561	11611.19
899.739	11537.57
899.916	11662.88
900.093	11461.36
900.27	11561.53
900.448	11462.84
900.625	11522.02
900.802	11495.13
900.979	11486.43
901.156	11389.33
901.334	11428.68
901.511	11388.8
901.688	11461.4
901.865	11308.73
902.042	11480.63
902.219	11344.24
902.396	11359.15
902.573	11393.7
902.75	11372.81
902.927	11275.04
903.104	11402.87
903.281	11326.83
903.458	11322.65
903.635	11242.13
903.812	11271.31
903.989	11198.2
904.166	11206.8
904.343	11139.09
904.52	11168.99
904.696	11045.71
904.873	11147.9
905.05	11066.53
905.227	11174.87
905.404	11149.21
905.58	11118.33
905.757	11092.83
905.934	11065.53
906.111	11027.93
906.287	11089.02
906.464	10984
906.641	11080.05
906.817	10921.6
906.994	11067.27
907.17	10840.97
907.347	10930.38
907.524	10911.87
907.7	10934.5
907.877	10876.87
908.053	10845.91
908.23	10809.41
908.406	10827.88
908.583	10835.13
908.759	10839.91
908.935	10683.58
909.112	10781.19
909.288	10685.35
909.465	10819.96
909.641	10762.8
909.817	10809.94
909.994	10702.75
910.17	10719.89
910.346	10595.05
910.523	10638.49
910.699	10526.69
910.875	10664.87
911.051	10614.55
911.228	10591.04
911.404	10552.76
911.58	10587.41
911.756	10422.8
911.932	10520.77
912.108	10456.03
912.284	10463.71
912.46	10420.6
912.637	10507.66
912.813	10378.13
912.989	10459.88
913.165	10334.61
913.341	10400.66
913.517	10333.91
913.693	10521.73
913.869	10306.88
914.044	10342.64
914.22	10301.56
914.396	10363.43
914.572	10284.74
914.748	10370.57
914.924	10222.95
915.1	10346.1
915.276	10260.31
915.451	10220.27
915.627	10249.39
915.803	10228.38
915.979	10150.91
916.154	10198.89
916.33	10170.4
916.506	10202.19
916.681	10138.29
916.857	10152.48
917.033	10112.82
917.208	10147.26
917.384	10005.44
917.56	10085.58
917.735	10001.2
917.911	10104.07
918.086	10026.02
918.262	9974.17
918.437	9886.62
918.613	10013.73
918.788	9852.48
918.964	9936.55
919.139	9740.86
919.314	9808.88
919.49	9675.33
919.665	9762.82
919.841	9614.52
920.016	9643.5
920.191	9539.79
920.367	9604.47
920.542	9522.41
920.717	9528.51
920.892	9523.98
921.068	9602.52
921.243	9472.23
921.418	9491.34
921.593	9459.74
921.769	9413.82
921.944	9440.12
922.119	9454.43
922.294	9333.95
922.469	9410.94
922.644	9403.77
922.819	9400.33
922.994	9288.2
923.169	9343.41
923.344	9308.11
923.519	9340.3
923.694	9184.29
923.869	9353.69
924.044	9210.79
924.219	9272.21
924.394	9217.77
924.569	9316.99
924.744	9192.62
924.919	9217.63
925.094	9179.43
925.268	9188.3
925.443	9183.9
925.618	9153.46
925.793	9103.78
925.968	9142.2
926.142	9069.81
926.317	9118.38
926.492	9048.04
926.666	9089.49
926.841	9007.03
927.016	9045.86
927.19	9009.49
927.365	9047.28
927.54	8944.24
927.714	9030.09
927.889	8935.54
928.063	9016.68
928.238	8900.77
928.412	8970.54
928.587	8861.01
928.761	8889.62
928.936	8767.44
929.11	8810.2
929.285	8672.87
929.459	8790.24
929.634	8668.22
929.808	8748.95
929.982	8641.41
930.157	8615.05
930.331	8547.08
930.505	8616.88
930.68	8523.73
930.854	8552.45
931.028	8454.86
931.202	8493.81
931.377	8398.89
931.551	8510.5
931.725	8281.3
931.899	8497.95
932.073	8306.06
932.247	8372.41
932.422	8271.22
932.596	8316.66
932.77	8223.36
932.944	8356.78
933.118	8183.85
933.292	8191.04
933.466	8149.16
933.64	8143.3
933.814	8125.59
933.988	8167.94
934.162	8062.61
934.336	8109.98
934.51	8076.21
934.683	8068.68
934.857	8055.67
935.031	8097.1
935.205	7971.87
935.379	8088.77
935.553	8023.09
935.726	8093.99
935.9	7976.58
936.074	7995.83
936.248	7975.23
936.421	8070.38
936.595	7894.7
936.769	8042.2
936.943	7949.2
937.116	8040.41
937.29	7888.21
937.463	7988.97
937.637	7877.7
937.811	7938.2
937.984	7863.67
938.158	7979.36
938.331	7863.49
938.505	7864.37
938.678	7824.64
938.852	7869.84
939.025	7776.45
939.199	7776.88
939.372	7667.13
939.545	7755.46
939.719	7666.19
939.892	7659.51
940.066	7615.75
940.239	7590.7
940.412	7576.63
940.586	7559.82
940.759	7514.35
940.932	7525.84
941.105	7456.25
941.279	7415.8
941.452	7409.99
941.625	7409.6
941.798	7369.15
941.971	7380.5
942.144	7291.94
942.318	7308.55
942.491	7266.08
942.664	7268.13
942.837	7213.3
943.01	7225.57
943.183	7131.32
943.356	7148.81
943.529	7101.54
943.702	7151.12
943.875	7076.87
944.048	7172.38
944.221	7078.71
944.394	7091.04
944.567	7004.67
944.74	7087.74
944.912	7040.76
945.085	7127.92
945.258	7045.18
945.431	7060.81
945.604	6985.73
945.776	7029.97
945.949	7080.26
946.122	7029.35
946.295	6969.82
946.467	6994.74
946.64	6937.38
946.813	7031.85
946.985	6917.14
947.158	6975.25
947.331	6909.75
947.503	6963.55
947.676	6842.37
947.848	6960.42
948.021	6815.91
948.194	6863.45
948.366	6804.96
948.539	6825.6
948.711	6782.35
948.883	6764.32
949.056	6701.57
949.228	6734.4
949.401	6643.88
949.573	6671.61
949.746	6614.13
949.918	6609.23
950.09	6563.13
950.263	6509.05
950.435	6519.2
950.607	6463.76
950.779	6385.8
950.952	6451.52
951.124	6381.25
951.296	6399.95
951.468	6309.96
951.64	6344.35
951.813	6237.46
951.985	6264.6
952.157	6228.35
952.329	6260.85
952.501	6208.71
952.673	6249.22
952.845	6175.27
953.017	6178.11
953.189	6105.39
953.361	6189.01
953.533	6137.54
953.705	6153.78
953.877	6110.37
954.049	6160.03
954.221	6094.56
954.393	6119.73
954.565	6043.77
954.737	6071.99
954.909	6015.89
955.08	6031.25
955.252	5992.42
955.424	6021.08
955.596	5946.22
955.768	5974.67
955.939	5910.01
956.111	5959.15
956.283	5875.87
956.454	5892.46
956.626	5872.62
956.798	5865.21
956.969	5817.82
957.141	5850.17
957.313	5765.24
957.484	5807.21
957.656	5815.64
957.827	5756.21
957.999	5732.87
958.17	5736.96
958.342	5704.58
958.513	5685.52
958.685	5673.11
958.856	5681.56
959.028	5616.5
959.199	5608.49
959.37	5567.66
959.542	5597.68
959.713	5545.35
959.884	5592.6
960.056	5519.79
960.227	5568.66
960.398	5456.41
960.57	5495.06
960.741	5429.42
960.912	5484.96
961.083	5390.94
961.254	5386.41
961.426	5326.24
961.597	5381.17
961.768	5294.87
961.939	5297.06
962.11	5266.6
962.281	5291.84
962.452	5244.2
962.623	5262.1
962.794	5194.86
962.965	5272.24
963.136	5227.51
963.307	5163.78
963.478	5189.07
963.649	5191.46
963.82	5143.69
963.991	5129.9
964.162	5122.3
964.333	5137.25
964.504	5066.62
964.675	5095.54
964.845	5049.03
965.016	5118.52
965.187	4980.58
965.358	5064.1
965.529	5057.71
965.699	4995.86
965.87	4995.19
966.041	4966.33
966.211	4947.78
966.382	4944.07
966.553	4880.32
966.723	4954.02
966.894	4866.08
967.065	4919.23
967.235	4869.28
967.406	4898.71
967.576	4830.18
967.747	4850.11
967.917	4791.45
968.088	4842
968.258	4736.61
968.429	4785.9
968.599	4713.92
968.769	4750.29
968.94	4679.78
969.11	4685.94
969.281	4616.15
969.451	4641.4
969.621	4595.1
969.792	4611.44
969.962	4542.97
970.132	4543.61
970.302	4492.23
970.473	4500.87
970.643	4456.96
970.813	4446.95
970.983	4408.16
971.153	4409.63
971.324	4376.45
971.494	4374.14
971.664	4305.7
971.834	4352.21
972.004	4265.91
972.174	4283.09
972.344	4205.29
972.514	4220.91
972.684	4165.76
972.854	4187.26
973.024	4124.74
973.194	4175.77
973.364	4089.78
973.534	4108.38
973.704	4037.23
973.874	4068.54
974.043	4024.9
974.213	4038.09
974.383	3984.68
974.553	3973.29
974.723	3959.12
974.893	3947.81
975.062	3895.59
975.232	3921.31
975.402	3862.84
975.571	3903.27
975.741	3843.68
975.911	3847.2
976.08	3791.43
976.25	3827.46
976.42	3762.35
976.589	3804.01
976.759	3754.83
976.928	3751.41
977.098	3694.79
977.267	3679.22
977.437	3662.45
977.606	3680.02
977.776	3619.1
977.945	3658.99
978.115	3594.13
978.284	3596.38
978.454	3609.35
978.623	3590.03
978.792	3535.27
978.962	3568.72
979.131	3532.61
979.3	3530.79
979.47	3508.55
979.639	3539.02
979.808	3453.33
979.977	3507.6
980.147	3437.46
980.316	3432.03
980.485	3410.71
980.654	3406.88
980.823	3363.39
980.992	3362.46
981.162	3346.51
981.331	3347.78
981.5	3305.55
981.669	3328.78
981.838	3265.02
982.007	3255.42
982.176	3251.48
982.345	3237.11
982.514	3180.36
982.683	3215.58
982.852	3166.86
983.021	3173.4
983.19	3132.72
983.358	3142.41
983.527	3072.1
983.696	3088.45
983.865	3050.52
984.034	3060.66
984.203	3040.81
984.371	3043.08
984.54	2981.79
984.709	2999.01
984.878	2956.11
985.046	2939.93
985.215	2912.69
985.384	2920.06
985.552	2859.32
985.721	2896.92
985.889	2845.64
986.058	2818.52
986.227	2809.86
986.395	2811.31
986.564	2783.81
986.732	2766.05
986.901	2742.3
987.069	2779.74
987.238	2736.2
987.406	2740.21
987.575	2716.88
987.743	2731.44
987.911	2671.91
988.08	2699.48
988.248	2651.37
988.416	2664.68
988.585	2622.25
988.753	2662.82
988.921	2615.92
989.09	2617.78
989.258	2602.48
989.426	2594.39
989.594	2554.83
989.763	2582.29
989.931	2536.4
990.099	2573.81
990.267	2535.06
990.435	2546.06
990.603	2524.21
990.771	2526.3
990.939	2507.58
991.107	2532.63
991.275	2467.11
991.443	2499.61
991.611	2460.03
991.779	2479.67
991.947	2447.98
992.115	2452.27
992.283	2423.08
992.451	2427.55
992.619	2406.43
992.787	2406.96
992.955	2381.34
993.123	2393.18
993.29	2356.34
993.458	2385.64
993.626	2333.87
993.794	2346.61
993.962	2326.05
994.129	2346.61
994.297	2282.75
994.465	2313.54
994.632	2283.76
994.8	2279.29
994.968	2260.27
995.135	2261.58
995.303	2227.56
995.47	2236.16
995.638	2208.54
995.806	2210.83
995.973	2172.16
996.141	2183.63
996.308	2143.72
996.476	2148.26
996.643	2101.14
996.81	2128.81
996.978	2083.12
997.145	2109.37
997.313	2059.79
997.48	2064.05
997.647	2051.64
997.815	2054.65
997.982	2006.65
998.149	2034.83
998.317	1995.98
998.484	1986.13
998.651	1959.26
998.818	1983.61
998.986	1944.57
999.153	1980.25
999.32	1937.61
999.487	1954.34
999.654	1924.13
999.821	1947.36
999.988	1922.54
1000.155	1907.94
1000.323	1892.9
1000.49	1908.02
1000.657	1881.27
1000.824	1903.82
1000.991	1884.16
1001.158	1897.43
1001.324	1857.17
1001.491	1883.42
1001.658	1856.55
1001.825	1893.13
1001.992	1847.01
1002.159	1870.5
1002.326	1823.76
1002.493	1863.52
1002.659	1817.74
1002.826	1853.23
1002.993	1808.59
1003.16	1829.83
1003.326	1795.75
1003.493	1815.92
1003.66	1796.36
1003.827	1804.37
1003.993	1770.52
1004.16	1775.92
1004.326	1741.42
1004.493	1772.01
1004.66	1738.49
1004.826	1743.34
1004.993	1715
1005.159	1724.87
1005.326	1699.35
1005.492	1709.16
1005.659	1673.4
1005.825	1682.78
1005.992	1672.71
1006.158	1656.59
1006.325	1630.89
1006.491	1639.02
1006.657	1602.42
1006.824	1616.2
1006.99	1599.53
1007.156	1605.8
1007.323	1569.06
1007.489	1573.69
1007.655	1540.08
1007.821	1547.35
1007.988	1509.03
1008.154	1526.56
1008.32	1505.33
1008.486	1516.2
1008.652	1490.46
1008.818	1482.06
1008.985	1461.56
1009.151	1469.51
1009.317	1447.04
1009.483	1462.48
1009.649	1429.55
1009.815	1435.26
1009.981	1418.18
1010.147	1430.43
1010.313	1405.63
1010.479	1417.22
1010.645	1378.82
1010.811	1415.77
1010.976	1369.89
1011.142	1392.48
1011.308	1365.9
1011.474	1380.07
1011.64	1349.41
1011.806	1369.69
1011.971	1347.32
1012.137	1365.45
1012.303	1352.08
1012.469	1344.95
1012.634	1331.43
1012.8	1333.87
1012.966	1320.76
1013.131	1317.47
1013.297	1287.34
1013.463	1306.75
1013.628	1292.46
1013.794	1293.14
1013.959	1279.09
1014.125	1276.01
1014.291	1252.77
1014.456	1262.48
1014.622	1230.82
1014.787	1237.82
1014.952	1221.09
1015.118	1224.1
1015.283	1202.66
1015.449	1214.23
1015.614	1182.3
1015.779	1190.68
1015.945	1170.42
1016.11	1181.58
1016.275	1154.73
1016.441	1163.83
1016.606	1142.69
1016.771	1154.75
1016.937	1124.34
1017.102	1130.98
1017.267	1106.97
1017.432	1118.05
1017.597	1095.63
1017.762	1119.14
1017.928	1094.18
1018.093	1083.83
1018.258	1081.13
1018.423	1094.85
1018.588	1057.13
1018.753	1078.86
1018.918	1057.82
1019.083	1060.83
1019.248	1037.36
1019.413	1043.3
1019.578	1026.86
1019.743	1034.21
1019.908	1014.67
1020.073	1021.25
1020.237	997.53
1020.402	996.96
1020.567	970.17
1020.732	991.04
1020.897	969.23
1021.062	974.43
1021.226	955.1
1021.391	964.33
1021.556	928.04
1021.72	945.9
1021.885	939.55
1022.05	932.28
1022.214	820.94
1022.379	925.85
1022.544	890.75
1022.708	897.12
1022.873	882.05
1023.037	887.72
1023.202	871.5
1023.366	878.26
1023.531	853.64
1023.695	850.57
1023.86	848.13
1024.024	846.39
1024.189	837.69
1024.353	830.05
1024.518	814.38
1024.682	826.2
1024.846	803.2
1025.011	811.31
1025.175	802.24
1025.339	802.42
1025.504	781.53
1025.668	786.53
1025.832	782.37
1025.996	786.04
1026.161	770.02
1026.325	767.48
1026.489	749.24
1026.653	754.91
1026.817	731.13
1026.981	740.55
1027.145	720.71
1027.309	727.04
1027.474	702.6
1027.638	712.31
1027.802	698.59
1027.966	695.78
1028.13	684.66
1028.294	689.39
1028.458	673.83
1028.621	666.54
1028.785	659.9
1028.949	651.57
1029.113	644.65
1029.277	645.42
1029.441	628.75
1029.605	635.74
1029.768	607.64
1029.932	613.76
1030.096	604.42
1030.26	610.71
1030.423	578.97
1030.587	589.97
1030.751	578.46
1030.915	588.29
1031.078	570.33
1031.242	570.82
1031.405	565.68
1031.569	555.31
1031.733	546.12
1031.896	555.13
1032.06	528.89
1032.223	531.66
1032.387	527.67
1032.55	522.36
1032.714	522.26
1032.877	510.71
1033.041	492.99
1033.204	498.77
1033.367	486.77
1033.531	494.26
1033.694	474.73
1033.858	480.19
1034.021	474.32
1034.184	476.57
1034.347	451.99
1034.511	465.9
1034.674	448.12
1034.837	454.57
1035	439.6
1035.164	450.56
1035.327	435.94
1035.49	437
1035.653	431.8
1035.816	429.04
1035.979	415.48
1036.142	425.21
1036.305	410.85
1036.468	415.99
1036.631	410.19
1036.794	409.66
1036.957	396.39
1037.12	399.44
1037.283	390.49
1037.446	402
1037.609	391.01
1037.772	393.42
1037.935	382.75
1038.098	387.36
1038.261	380.19
1038.424	373.33
1038.586	368.42
1038.749	371.3
1038.912	364.2
1039.075	371.53
1039.237	363.66
1039.4	369.75
1039.563	356.17
1039.725	359.81
1039.888	354.35
1040.051	348.65
1040.213	350.95
1040.376	345.05
1040.539	334.3
1040.701	341.22
1040.864	335.55
1041.026	337.84
1041.189	329.44
1041.351	329.63
1041.514	318.65
1041.676	325.37
1041.838	308.35
1042.001	331.49
1042.163	306.59
1042.326	318.45
1042.488	300.32
1042.65	304.52
1042.813	294.32
1042.975	297.21
1043.137	285.74
1043.3	287.42
1043.462	290.41
1043.624	291.54
1043.786	280.78
1043.948	286.74
1044.111	268.76
1044.273	274.62
1044.435	270.87
1044.597	273.39
1044.759	263.46
1044.921	270.71
1045.083	260.22
